sysTime timestamp ecg beat ibi 
245819854 1602687040.000000 1.935484 0 0.000000 
245819866 1602699040.000000 1.896383 0 0.000000 
245819878 1602711040.000000 1.930596 0 0.000000 
245819890 1602723036.000000 1.911046 0 0.000000 
245819903 1602735040.000000 1.901271 0 0.000000 
245819914 1602747032.000000 1.945259 0 0.000000 
245819927 1602759032.000000 1.984360 0 0.000000 
245819939 1602771040.000000 1.984360 0 0.000000 
245819950 1602783040.000000 1.935484 0 0.000000 
245819962 1602795048.000000 1.945259 0 0.000000 
245819974 1602807048.000000 1.950147 0 0.000000 
245819986 1602819048.000000 1.959922 0 0.000000 
245819998 1602831056.000000 1.930596 0 0.000000 
245820010 1602843056.000000 1.950147 0 0.000000 
245820022 1602855056.000000 1.906158 0 0.000000 
245820035 1602867056.000000 1.906158 0 0.000000 
245820046 1602879060.000000 1.803519 0 0.000000 
245820058 1602891064.000000 1.744868 0 0.000000 
245820070 1602903060.000000 1.725318 0 0.000000 
245820082 1602915060.000000 1.632454 0 0.000000 
245820094 1602927068.000000 1.627566 0 0.000000 
245820106 1602939076.000000 1.647116 0 0.000000 
245820118 1602951084.000000 1.656891 0 0.000000 
245820131 1602963092.000000 1.666667 0 0.000000 
245820143 1602975092.000000 1.666667 0 0.000000 
245820155 1602987092.000000 1.691105 0 0.000000 
245820167 1602999088.000000 1.705767 0 0.000000 
245820178 1603011092.000000 1.720430 0 0.000000 
245820190 1603023096.000000 1.710655 0 0.000000 
245820202 1603035092.000000 1.695992 0 0.000000 
245820214 1603047104.000000 1.725318 0 0.000000 
245820226 1603059112.000000 1.739980 0 0.000000 
245820238 1603071108.000000 1.754643 0 0.000000 
245820250 1603083112.000000 1.808407 0 0.000000 
245820262 1603095100.000000 1.798631 0 0.000000 
245820274 1603107100.000000 1.818182 0 0.000000 
245820286 1603119116.000000 1.852395 0 0.000000 
245820298 1603131116.000000 1.832845 0 0.000000 
245820311 1603143128.000000 1.915934 0 0.000000 
245820323 1603155136.000000 1.886608 0 0.000000 
245820335 1603167124.000000 1.852395 0 0.000000 
245820347 1603179132.000000 1.881720 0 0.000000 
245820359 1603191136.000000 1.862170 0 0.000000 
245820371 1603203132.000000 1.876833 0 0.000000 
245820383 1603215132.000000 1.852395 0 0.000000 
245820395 1603227144.000000 1.867058 0 0.000000 
245820407 1603239132.000000 1.798631 0 0.000000 
245820419 1603251140.000000 1.823069 0 0.000000 
245820431 1603263140.000000 1.779081 0 0.000000 
245820443 1603275132.000000 1.774194 0 0.000000 
245820455 1603287144.000000 1.788856 0 0.000000 
245820467 1603299144.000000 1.857283 0 0.000000 
245820479 1603311148.000000 1.803519 0 0.000000 
245820491 1603323144.000000 1.837732 0 0.000000 
245820503 1603335148.000000 1.764418 0 0.000000 
245820515 1603347156.000000 1.832845 0 0.000000 
245820527 1603359160.000000 1.930596 0 0.000000 
245820539 1603371168.000000 1.925709 0 0.000000 
245820551 1603383160.000000 1.930596 0 0.000000 
245820563 1603395156.000000 1.813294 0 0.000000 
245820575 1603407164.000000 1.608016 0 0.000000 
245820587 1603419172.000000 1.617791 0 0.000000 
245820599 1603431164.000000 1.691105 0 0.000000 
245820611 1603443168.000000 1.735093 0 0.000000 
245820623 1603455164.000000 1.661779 0 0.000000 
245820635 1603467164.000000 1.681329 0 0.000000 
245820647 1603479176.000000 1.700880 0 0.000000 
245820659 1603491164.000000 1.691105 0 0.000000 
245820671 1603503164.000000 2.287390 0 0.000000 
245820683 1603515164.000000 2.434018 0 0.000000 
245820695 1603527160.000000 1.070381 0 0.000000 
245820710 1603539156.000000 0.845552 1 0.869048 
245820721 1603551140.000000 1.363636 0 0.000000 
245820733 1603563148.000000 1.720430 0 0.000000 
245820743 1603575148.000000 1.852395 0 0.000000 
245820755 1603587160.000000 1.930596 0 0.000000 
245820767 1603599152.000000 1.945259 0 0.000000 
245820780 1603611152.000000 1.959922 0 0.000000 
245820793 1603623152.000000 1.959922 0 0.000000 
245820804 1603635160.000000 1.999022 0 0.000000 
245820817 1603647160.000000 1.930596 0 0.000000 
245820829 1603659160.000000 1.896383 0 0.000000 
245820840 1603671156.000000 1.911046 0 0.000000 
245820852 1603683160.000000 1.940372 0 0.000000 
245820863 1603695164.000000 2.043011 0 0.000000 
245820876 1603707156.000000 1.813294 0 0.000000 
245820888 1603719164.000000 1.774194 0 0.000000 
245820900 1603731172.000000 1.891496 0 0.000000 
245820912 1603743176.000000 1.979472 0 0.000000 
245820924 1603755180.000000 2.130987 0 0.000000 
245820936 1603767172.000000 2.165200 0 0.000000 
245820948 1603779176.000000 1.925709 0 0.000000 
245820960 1603791176.000000 1.857283 0 0.000000 
245820972 1603803184.000000 1.827957 0 0.000000 
245820984 1603815180.000000 1.764418 0 0.000000 
245820996 1603827192.000000 1.739980 0 0.000000 
245821008 1603839192.000000 1.700880 0 0.000000 
245821020 1603851180.000000 1.524927 0 0.000000 
245821032 1603863188.000000 1.559140 0 0.000000 
245821044 1603875188.000000 1.578690 0 0.000000 
245821056 1603887188.000000 1.661779 0 0.000000 
245821068 1603899192.000000 1.681329 0 0.000000 
245821080 1603911200.000000 1.715543 0 0.000000 
245821092 1603923204.000000 1.691105 0 0.000000 
245821104 1603935208.000000 1.749756 0 0.000000 
245821116 1603947204.000000 1.735093 0 0.000000 
245821128 1603959208.000000 1.691105 0 0.000000 
245821140 1603971204.000000 1.764418 0 0.000000 
245821152 1603983204.000000 1.793744 0 0.000000 
245821164 1603995212.000000 1.823069 0 0.000000 
245821176 1604007208.000000 1.730205 0 0.000000 
245821188 1604018176.000000 1.823069 0 0.000000 
245821200 1604031188.000000 1.769306 0 0.000000 
245821212 1604043188.000000 1.783969 0 0.000000 
245821224 1604055188.000000 1.735093 0 0.000000 
245821236 1604067184.000000 1.710655 0 0.000000 
245821249 1604079180.000000 1.779081 0 0.000000 
245821261 1604091172.000000 1.754643 0 0.000000 
245821272 1604103180.000000 1.754643 0 0.000000 
245821284 1604115172.000000 1.774194 0 0.000000 
245821296 1604127184.000000 1.710655 0 0.000000 
245821309 1604139180.000000 1.764418 0 0.000000 
245821321 1604151180.000000 1.764418 0 0.000000 
245821332 1604163188.000000 1.695992 0 0.000000 
245821344 1604175188.000000 1.813294 0 0.000000 
245821357 1604187200.000000 1.739980 0 0.000000 
245821369 1604199188.000000 1.783969 0 0.000000 
245821381 1604211192.000000 1.739980 0 0.000000 
245821393 1604223192.000000 1.925709 0 0.000000 
245821405 1604235192.000000 1.959922 0 0.000000 
245821417 1604247192.000000 1.955034 0 0.000000 
245821429 1604259192.000000 1.808407 0 0.000000 
245821441 1604271180.000000 1.637341 0 0.000000 
245821453 1604283188.000000 1.598240 0 0.000000 
245821465 1604295180.000000 1.612903 0 0.000000 
245821477 1604307188.000000 1.656891 0 0.000000 
245821489 1604319196.000000 1.769306 0 0.000000 
245821501 1604331200.000000 1.739980 0 0.000000 
245821513 1604343188.000000 1.617791 0 0.000000 
245821525 1604355188.000000 1.598240 0 0.000000 
245821537 1604367172.000000 2.414467 0 0.000000 
245821549 1604379184.000000 1.959922 0 0.000000 
245821561 1604391180.000000 0.767351 0 0.000000 
245821574 1604403164.000000 0.982405 1 0.857143 
245821585 1604415148.000000 1.432063 0 0.000000 
245821597 1604427148.000000 1.754643 0 0.000000 
245821609 1604439152.000000 1.867058 0 0.000000 
245821621 1604451144.000000 1.842620 0 0.000000 
245821633 1604463140.000000 1.915934 0 0.000000 
245821645 1604475152.000000 1.906158 0 0.000000 
245821657 1604487152.000000 1.940372 0 0.000000 
245821669 1604499156.000000 1.915934 0 0.000000 
245821681 1604511164.000000 1.779081 0 0.000000 
245821693 1604523168.000000 1.857283 0 0.000000 
245821705 1604535164.000000 1.891496 0 0.000000 
245821717 1604547168.000000 1.867058 0 0.000000 
245821729 1604559164.000000 1.911046 0 0.000000 
245821741 1604571180.000000 1.920821 0 0.000000 
245821753 1604583176.000000 1.925709 0 0.000000 
245821765 1604595176.000000 1.959922 0 0.000000 
245821777 1604607176.000000 1.862170 0 0.000000 
245821790 1604619168.000000 1.920821 0 0.000000 
245821801 1604631168.000000 1.940372 0 0.000000 
245821813 1604643168.000000 1.994135 0 0.000000 
245821825 1604655168.000000 1.989247 0 0.000000 
245821837 1604667160.000000 1.808407 0 0.000000 
245821850 1604679152.000000 1.749756 0 0.000000 
245821861 1604691152.000000 1.744868 0 0.000000 
245821874 1604703136.000000 1.686217 0 0.000000 
245821886 1604715140.000000 1.603128 0 0.000000 
245821898 1604727140.000000 1.588465 0 0.000000 
245821910 1604739140.000000 1.578690 0 0.000000 
245821922 1604751132.000000 1.603128 0 0.000000 
245821934 1604763132.000000 1.656891 0 0.000000 
245821946 1604775140.000000 1.695992 0 0.000000 
245821958 1604787148.000000 1.691105 0 0.000000 
245821970 1604799152.000000 1.686217 0 0.000000 
245821982 1604811160.000000 1.710655 0 0.000000 
245821994 1604823160.000000 1.739980 0 0.000000 
245822006 1604835152.000000 1.720430 0 0.000000 
245822018 1604847148.000000 1.774194 0 0.000000 
245822030 1604859156.000000 1.764418 0 0.000000 
245822042 1604871164.000000 1.754643 0 0.000000 
245822054 1604883168.000000 1.827957 0 0.000000 
245822066 1604895168.000000 1.744868 0 0.000000 
245822078 1604907152.000000 1.730205 0 0.000000 
245822090 1604919140.000000 1.793744 0 0.000000 
245822102 1604931152.000000 1.818182 0 0.000000 
245822114 1604943156.000000 1.813294 0 0.000000 
245822126 1604955172.000000 1.676442 0 0.000000 
245822138 1604967176.000000 1.744868 0 0.000000 
245822150 1604979164.000000 1.754643 0 0.000000 
245822162 1604991164.000000 1.813294 0 0.000000 
245822174 1605003172.000000 1.798631 0 0.000000 
245822186 1605015172.000000 1.788856 0 0.000000 
245822198 1605027184.000000 1.808407 0 0.000000 
245822210 1605039176.000000 1.974585 0 0.000000 
245822222 1605051168.000000 1.842620 0 0.000000 
245822234 1605063164.000000 1.788856 0 0.000000 
245822246 1605075172.000000 1.769306 0 0.000000 
245822258 1605087176.000000 1.671554 0 0.000000 
245822270 1605099184.000000 1.622678 0 0.000000 
245822282 1605111192.000000 1.612903 0 0.000000 
245822294 1605123200.000000 1.725318 0 0.000000 
245822306 1605135196.000000 1.759531 0 0.000000 
245822318 1605147196.000000 1.705767 0 0.000000 
245822330 1605159208.000000 1.901271 0 0.000000 
245822342 1605171196.000000 2.556207 0 0.000000 
245822354 1605183184.000000 1.016618 0 0.000000 
245822367 1605195180.000000 0.738025 1 0.785714 
245822378 1605207172.000000 1.334311 0 0.000000 
245822390 1605219176.000000 1.818182 0 0.000000 
245822402 1605231184.000000 1.925709 0 0.000000 
245822414 1605243184.000000 1.964809 0 0.000000 
245822426 1605255188.000000 1.989247 0 0.000000 
245822438 1605267180.000000 2.008798 0 0.000000 
245822450 1605279172.000000 2.101662 0 0.000000 
245822463 1605291172.000000 2.057673 0 0.000000 
245822474 1605303168.000000 1.974585 0 0.000000 
245822486 1605315176.000000 1.979472 0 0.000000 
245822498 1605327176.000000 1.974585 0 0.000000 
245822510 1605339184.000000 2.018573 0 0.000000 
245822522 1605351176.000000 1.974585 0 0.000000 
245822534 1605363180.000000 2.057673 0 0.000000 
245822546 1605375180.000000 2.013685 0 0.000000 
245822558 1605387184.000000 1.979472 0 0.000000 
245822570 1605399184.000000 1.999022 0 0.000000 
245822582 1605411184.000000 1.940372 0 0.000000 
245822594 1605423192.000000 1.984360 0 0.000000 
245822606 1605435196.000000 2.043011 0 0.000000 
245822618 1605447192.000000 1.989247 0 0.000000 
245822630 1605459192.000000 1.896383 0 0.000000 
245822642 1605471192.000000 1.886608 0 0.000000 
245822654 1605483188.000000 1.798631 0 0.000000 
245822666 1605495188.000000 1.793744 0 0.000000 
245822678 1605507200.000000 1.715543 0 0.000000 
245822690 1605519200.000000 1.710655 0 0.000000 
245822702 1605531196.000000 1.695992 0 0.000000 
245822715 1605543208.000000 1.808407 0 0.000000 
245822726 1605555196.000000 1.803519 0 0.000000 
245822738 1605567200.000000 1.686217 0 0.000000 
245822750 1605579204.000000 1.735093 0 0.000000 
245822762 1605591208.000000 1.749756 0 0.000000 
245822774 1605603204.000000 1.774194 0 0.000000 
245822786 1605615212.000000 1.803519 0 0.000000 
245822798 1605627204.000000 1.911046 0 0.000000 
245822810 1605639216.000000 1.803519 0 0.000000 
245822822 1605651204.000000 1.764418 0 0.000000 
245822834 1605663216.000000 1.744868 0 0.000000 
245822846 1605675200.000000 1.739980 0 0.000000 
245822858 1605687188.000000 1.774194 0 0.000000 
245822870 1605699196.000000 1.783969 0 0.000000 
245822882 1605711196.000000 1.798631 0 0.000000 
245822894 1605723208.000000 1.915934 0 0.000000 
245822906 1605735208.000000 1.700880 0 0.000000 
245822918 1605747196.000000 1.735093 0 0.000000 
245822930 1605759200.000000 1.857283 0 0.000000 
245822942 1605771204.000000 1.759531 0 0.000000 
245822954 1605783204.000000 1.832845 0 0.000000 
245822966 1605795216.000000 1.832845 0 0.000000 
245822978 1605807216.000000 1.735093 0 0.000000 
245822990 1605819204.000000 1.793744 0 0.000000 
245823002 1605831212.000000 1.793744 0 0.000000 
245823014 1605843212.000000 1.803519 0 0.000000 
245823026 1605855204.000000 1.813294 0 0.000000 
245823038 1605867216.000000 1.837732 0 0.000000 
245823050 1605879220.000000 1.852395 0 0.000000 
245823062 1605891232.000000 1.969697 0 0.000000 
245823074 1605903220.000000 2.033236 0 0.000000 
245823086 1605915216.000000 1.984360 0 0.000000 
245823098 1605927220.000000 1.891496 0 0.000000 
245823110 1605939228.000000 1.798631 0 0.000000 
245823122 1605951224.000000 1.744868 0 0.000000 
245823134 1605963216.000000 1.739980 0 0.000000 
245823146 1605975208.000000 1.739980 0 0.000000 
245823158 1605987200.000000 1.710655 0 0.000000 
245823170 1605999200.000000 1.686217 0 0.000000 
245823182 1606011204.000000 1.666667 0 0.000000 
245823194 1606023204.000000 1.652004 0 0.000000 
245823206 1606035188.000000 2.238514 0 0.000000 
245823218 1606047188.000000 2.482893 0 0.000000 
245823230 1606059188.000000 0.860215 0 0.000000 
245823244 1606071172.000000 0.767351 1 0.869048 
245823254 1606083156.000000 1.388074 0 0.000000 
245823266 1606095156.000000 1.788856 0 0.000000 
245823279 1606107164.000000 1.901271 0 0.000000 
245823290 1606119152.000000 1.896383 0 0.000000 
245823302 1606131152.000000 1.906158 0 0.000000 
245823314 1606143160.000000 1.871945 0 0.000000 
245823326 1606155156.000000 1.823069 0 0.000000 
245823338 1606167148.000000 1.793744 0 0.000000 
245823350 1606179152.000000 1.739980 0 0.000000 
245823362 1606191152.000000 1.691105 0 0.000000 
245823374 1606203140.000000 1.666667 0 0.000000 
245823386 1606215140.000000 1.656891 0 0.000000 
245823398 1606227152.000000 1.705767 0 0.000000 
245823410 1606239152.000000 1.710655 0 0.000000 
245823422 1606251148.000000 1.754643 0 0.000000 
245823434 1606263152.000000 1.808407 0 0.000000 
245823446 1606275144.000000 1.808407 0 0.000000 
245823458 1606287124.000000 1.823069 0 0.000000 
245823470 1606299128.000000 1.915934 0 0.000000 
245823482 1606311132.000000 2.013685 0 0.000000 
245823494 1606323132.000000 2.047898 0 0.000000 
245823507 1606335132.000000 1.969697 0 0.000000 
245823518 1606347136.000000 1.862170 0 0.000000 
245823530 1606359136.000000 1.744868 0 0.000000 
245823542 1606371116.000000 1.647116 0 0.000000 
245823554 1606383132.000000 1.627566 0 0.000000 
245823566 1606395140.000000 1.637341 0 0.000000 
245823578 1606407148.000000 1.539589 0 0.000000 
245823590 1606419144.000000 1.490714 0 0.000000 
245823602 1606431144.000000 1.476051 0 0.000000 
245823614 1606443136.000000 1.495601 0 0.000000 
245823626 1606455132.000000 1.578690 0 0.000000 
245823638 1606467132.000000 1.666667 0 0.000000 
245823650 1606479124.000000 1.764418 0 0.000000 
245823662 1606491140.000000 1.827957 0 0.000000 
245823674 1606503136.000000 1.842620 0 0.000000 
245823686 1606515128.000000 1.852395 0 0.000000 
245823698 1606527144.000000 1.871945 0 0.000000 
245823710 1606539140.000000 1.911046 0 0.000000 
245823722 1606551144.000000 1.935484 0 0.000000 
245823734 1606563152.000000 1.959922 0 0.000000 
245823746 1606575152.000000 2.018573 0 0.000000 
245823758 1606587140.000000 2.038123 0 0.000000 
245823770 1606599136.000000 1.984360 0 0.000000 
245823782 1606611144.000000 1.920821 0 0.000000 
245823794 1606623132.000000 2.018573 0 0.000000 
245823806 1606635136.000000 1.999022 0 0.000000 
245823818 1606647132.000000 2.023460 0 0.000000 
245823830 1606659124.000000 2.067449 0 0.000000 
245823842 1606671108.000000 2.057673 0 0.000000 
245823854 1606683108.000000 1.891496 0 0.000000 
245823866 1606695104.000000 1.950147 0 0.000000 
245823878 1606707100.000000 1.886608 0 0.000000 
245823890 1606719096.000000 1.925709 0 0.000000 
245823902 1606731096.000000 1.989247 0 0.000000 
245823914 1606743092.000000 2.101662 0 0.000000 
245823926 1606755092.000000 2.057673 0 0.000000 
245823938 1606767096.000000 1.955034 0 0.000000 
245823950 1606779096.000000 1.808407 0 0.000000 
245823962 1606791076.000000 1.759531 0 0.000000 
245823974 1606803076.000000 1.720430 0 0.000000 
245823986 1606815080.000000 1.730205 0 0.000000 
245823998 1606827080.000000 1.739980 0 0.000000 
245824010 1606839068.000000 1.759531 0 0.000000 
245824022 1606851068.000000 1.798631 0 0.000000 
245824034 1606863068.000000 1.779081 0 0.000000 
245824046 1606875068.000000 2.023460 0 0.000000 
245824058 1606887060.000000 2.942327 0 0.000000 
245824070 1606899060.000000 1.378299 0 0.000000 
245824083 1606911060.000000 0.791789 1 0.833333 
245824094 1606923052.000000 1.388074 0 0.000000 
245824106 1606935056.000000 1.827957 0 0.000000 
245824118 1606947056.000000 1.999022 0 0.000000 
245824130 1606959052.000000 2.052786 0 0.000000 
245824142 1606971052.000000 2.072336 0 0.000000 
245824154 1606983044.000000 2.067449 0 0.000000 
245824166 1606995036.000000 2.106549 0 0.000000 
245824178 1607007028.000000 2.008798 0 0.000000 
245824190 1607019024.000000 1.984360 0 0.000000 
245824202 1607031032.000000 1.969697 0 0.000000 
245824214 1607043032.000000 1.964809 0 0.000000 
245824226 1607055028.000000 2.008798 0 0.000000 
245824238 1607067020.000000 2.003910 0 0.000000 
245824250 1607079004.000000 1.969697 0 0.000000 
245824262 1607091000.000000 1.974585 0 0.000000 
245824274 1607103008.000000 1.950147 0 0.000000 
245824286 1607115008.000000 1.969697 0 0.000000 
245824298 1607127008.000000 1.994135 0 0.000000 
245824310 1607139008.000000 1.989247 0 0.000000 
245824322 1607151004.000000 2.008798 0 0.000000 
245824334 1607163000.000000 1.994135 0 0.000000 
245824347 1607174992.000000 1.994135 0 0.000000 
245824358 1607186992.000000 1.930596 0 0.000000 
245824370 1607198992.000000 1.925709 0 0.000000 
245824382 1607210992.000000 1.744868 0 0.000000 
245824394 1607222984.000000 1.608016 0 0.000000 
245824406 1607234980.000000 1.588465 0 0.000000 
245824418 1607246980.000000 1.632454 0 0.000000 
245824430 1607258984.000000 1.671554 0 0.000000 
245824442 1607270992.000000 1.739980 0 0.000000 
245824454 1607282980.000000 1.813294 0 0.000000 
245824466 1607294996.000000 1.735093 0 0.000000 
245824478 1607306988.000000 1.564027 0 0.000000 
245824490 1607318980.000000 1.603128 0 0.000000 
245824502 1607330984.000000 1.700880 0 0.000000 
245824514 1607342972.000000 1.798631 0 0.000000 
245824526 1607354980.000000 1.793744 0 0.000000 
245824538 1607366980.000000 1.769306 0 0.000000 
245824550 1607378988.000000 1.837732 0 0.000000 
245824562 1607390992.000000 1.715543 0 0.000000 
245824574 1607403000.000000 1.739980 0 0.000000 
245824586 1607415000.000000 1.686217 0 0.000000 
245824598 1607427004.000000 1.637341 0 0.000000 
245824610 1607439016.000000 1.720430 0 0.000000 
245824622 1607451016.000000 1.749756 0 0.000000 
245824634 1607463016.000000 1.779081 0 0.000000 
245824646 1607475004.000000 1.818182 0 0.000000 
245824658 1607487016.000000 1.739980 0 0.000000 
245824670 1607499012.000000 1.769306 0 0.000000 
245824682 1607511016.000000 1.739980 0 0.000000 
245824694 1607523012.000000 1.759531 0 0.000000 
245824706 1607535016.000000 1.808407 0 0.000000 
245824718 1607547008.000000 1.827957 0 0.000000 
245824730 1607559000.000000 1.808407 0 0.000000 
245824742 1607570988.000000 1.759531 0 0.000000 
245824754 1607582992.000000 1.847507 0 0.000000 
245824766 1607594992.000000 1.989247 0 0.000000 
245824778 1607606988.000000 2.023460 0 0.000000 
245824790 1607618984.000000 1.999022 0 0.000000 
245824802 1607630984.000000 1.906158 0 0.000000 
245824814 1607642980.000000 1.666667 0 0.000000 
245824826 1607654980.000000 1.652004 0 0.000000 
245824838 1607666976.000000 1.681329 0 0.000000 
245824850 1607678996.000000 1.681329 0 0.000000 
245824862 1607691008.000000 1.671554 0 0.000000 
245824874 1607703016.000000 1.686217 0 0.000000 
245824886 1607715016.000000 1.720430 0 0.000000 
245824898 1607727004.000000 1.661779 0 0.000000 
245824910 1607739004.000000 2.043011 0 0.000000 
245824922 1607750996.000000 2.658847 0 0.000000 
245824934 1607763000.000000 1.060606 0 0.000000 
245824947 1607774972.000000 0.772238 1 0.857143 
245824958 1607786964.000000 1.334311 0 0.000000 
245824970 1607798968.000000 1.749756 0 0.000000 
245824982 1607810960.000000 1.896383 0 0.000000 
245824995 1607822960.000000 1.945259 0 0.000000 
245825006 1607834960.000000 1.930596 0 0.000000 
245825018 1607846960.000000 1.920821 0 0.000000 
245825030 1607858948.000000 1.911046 0 0.000000 
245825042 1607870952.000000 1.901271 0 0.000000 
245825054 1607882944.000000 1.925709 0 0.000000 
245825066 1607894936.000000 1.915934 0 0.000000 
245825078 1607906944.000000 1.935484 0 0.000000 
245825090 1607918952.000000 1.955034 0 0.000000 
245825102 1607930952.000000 1.964809 0 0.000000 
245825114 1607942944.000000 1.989247 0 0.000000 
245825126 1607954940.000000 2.013685 0 0.000000 
245825138 1607966940.000000 2.018573 0 0.000000 
245825150 1607978940.000000 2.003910 0 0.000000 
245825162 1607990928.000000 1.999022 0 0.000000 
245825174 1608002924.000000 2.003910 0 0.000000 
245825186 1608014912.000000 1.984360 0 0.000000 
245825198 1608026912.000000 1.974585 0 0.000000 
245825210 1608038908.000000 1.940372 0 0.000000 
245825222 1608050916.000000 1.881720 0 0.000000 
245825234 1608062920.000000 1.808407 0 0.000000 
245825246 1608074912.000000 1.744868 0 0.000000 
245825258 1608086904.000000 1.710655 0 0.000000 
245825270 1608098904.000000 1.710655 0 0.000000 
245825282 1608110892.000000 1.705767 0 0.000000 
245825294 1608122896.000000 1.730205 0 0.000000 
245825307 1608134896.000000 1.749756 0 0.000000 
245825318 1608146892.000000 1.754643 0 0.000000 
245825330 1608158892.000000 1.774194 0 0.000000 
245825342 1608170900.000000 1.788856 0 0.000000 
245825354 1608182900.000000 1.793744 0 0.000000 
245825366 1608194900.000000 1.793744 0 0.000000 
245825378 1608206908.000000 1.798631 0 0.000000 
245825390 1608218920.000000 1.808407 0 0.000000 
245825402 1608230908.000000 1.798631 0 0.000000 
245825414 1608242920.000000 1.808407 0 0.000000 
245825426 1608254908.000000 1.793744 0 0.000000 
245825438 1608266916.000000 1.788856 0 0.000000 
245825450 1608278920.000000 1.803519 0 0.000000 
245825462 1608290916.000000 1.779081 0 0.000000 
245825474 1608302916.000000 1.788856 0 0.000000 
245825486 1608314924.000000 1.793744 0 0.000000 
245825498 1608326924.000000 1.783969 0 0.000000 
245825510 1608338916.000000 1.788856 0 0.000000 
245825522 1608350916.000000 1.754643 0 0.000000 
245825534 1608362908.000000 1.759531 0 0.000000 
245825546 1608374908.000000 1.754643 0 0.000000 
245825558 1608386912.000000 1.735093 0 0.000000 
245825570 1608398912.000000 1.749756 0 0.000000 
245825586 1608410904.000000 1.744868 0 0.000000 
245825596 1608422892.000000 1.754643 0 0.000000 
245825606 1608434892.000000 1.788856 0 0.000000 
245825618 1608446896.000000 1.915934 0 0.000000 
245825630 1608458904.000000 1.984360 0 0.000000 
245825642 1608470908.000000 2.013685 0 0.000000 
245825654 1608482912.000000 1.920821 0 0.000000 
245825666 1608494900.000000 1.793744 0 0.000000 
245825678 1608506912.000000 1.739980 0 0.000000 
245825690 1608518904.000000 1.730205 0 0.000000 
245825702 1608530904.000000 1.725318 0 0.000000 
245825714 1608542912.000000 1.730205 0 0.000000 
245825726 1608554908.000000 1.735093 0 0.000000 
245825738 1608566912.000000 1.739980 0 0.000000 
245825750 1608578904.000000 1.730205 0 0.000000 
245825762 1608590900.000000 1.691105 0 0.000000 
245825774 1608602900.000000 2.614858 0 0.000000 
245825786 1608614904.000000 1.915934 0 0.000000 
245825798 1608626908.000000 0.782014 0 0.000000 
245825812 1608638896.000000 1.041056 1 0.857143 
245825822 1608650892.000000 1.568915 0 0.000000 
245825834 1608662892.000000 1.876833 0 0.000000 
245825846 1608674904.000000 1.945259 0 0.000000 
245825858 1608686904.000000 1.955034 0 0.000000 
245825870 1608698908.000000 1.969697 0 0.000000 
245825882 1608710904.000000 1.930596 0 0.000000 
245825894 1608722904.000000 1.925709 0 0.000000 
245825906 1608734904.000000 1.906158 0 0.000000 
245825918 1608746900.000000 1.911046 0 0.000000 
245825930 1608758904.000000 1.920821 0 0.000000 
245825942 1608770904.000000 1.915934 0 0.000000 
245825954 1608782912.000000 1.925709 0 0.000000 
245825966 1608794912.000000 1.935484 0 0.000000 
245825978 1608806920.000000 1.950147 0 0.000000 
245825991 1608818920.000000 1.959922 0 0.000000 
245826002 1608830928.000000 1.955034 0 0.000000 
245826014 1608842928.000000 1.969697 0 0.000000 
245826026 1608854928.000000 1.959922 0 0.000000 
245826038 1608866936.000000 1.955034 0 0.000000 
245826050 1608878928.000000 1.974585 0 0.000000 
245826062 1608890936.000000 1.955034 0 0.000000 
245826074 1608902936.000000 1.920821 0 0.000000 
245826086 1608914932.000000 1.852395 0 0.000000 
245826098 1608926940.000000 1.769306 0 0.000000 
245826110 1608938944.000000 1.725318 0 0.000000 
245826122 1608950948.000000 1.695992 0 0.000000 
245826134 1608962948.000000 1.681329 0 0.000000 
245826146 1608974956.000000 1.691105 0 0.000000 
245826158 1608986960.000000 1.700880 0 0.000000 
245826170 1608998956.000000 1.720430 0 0.000000 
245826182 1609010952.000000 1.725318 0 0.000000 
245826194 1609022960.000000 1.749756 0 0.000000 
245826206 1609034960.000000 1.749756 0 0.000000 
245826218 1609046952.000000 1.749756 0 0.000000 
245826230 1609058948.000000 1.769306 0 0.000000 
245826242 1609070940.000000 1.779081 0 0.000000 
245826254 1609082940.000000 1.779081 0 0.000000 
245826266 1609094932.000000 1.783969 0 0.000000 
245826278 1609106932.000000 1.774194 0 0.000000 
245826290 1609118940.000000 1.779081 0 0.000000 
245826302 1609130940.000000 1.769306 0 0.000000 
245826314 1609142940.000000 1.779081 0 0.000000 
245826326 1609154932.000000 1.788856 0 0.000000 
245826338 1609166932.000000 1.774194 0 0.000000 
245826350 1609178932.000000 1.793744 0 0.000000 
245826362 1609190940.000000 1.783969 0 0.000000 
245826374 1609202932.000000 1.783969 0 0.000000 
245826386 1609214932.000000 1.783969 0 0.000000 
245826398 1609226932.000000 1.779081 0 0.000000 
245826410 1609238932.000000 1.779081 0 0.000000 
245826422 1609250932.000000 1.769306 0 0.000000 
245826434 1609262924.000000 1.774194 0 0.000000 
245826446 1609274936.000000 1.827957 0 0.000000 
245826458 1609286936.000000 1.945259 0 0.000000 
245826470 1609298936.000000 1.999022 0 0.000000 
245826482 1609310936.000000 1.994135 0 0.000000 
245826494 1609322936.000000 1.871945 0 0.000000 
245826507 1609334944.000000 1.739980 0 0.000000 
245826518 1609346932.000000 1.691105 0 0.000000 
245826530 1609358936.000000 1.671554 0 0.000000 
245826542 1609370940.000000 1.676442 0 0.000000 
245826554 1609382956.000000 1.695992 0 0.000000 
245826566 1609394956.000000 1.705767 0 0.000000 
245826578 1609406956.000000 1.705767 0 0.000000 
245826590 1609418960.000000 1.686217 0 0.000000 
245826602 1609430956.000000 1.769306 0 0.000000 
245826614 1609442956.000000 2.737048 0 0.000000 
245826626 1609454956.000000 1.412512 0 0.000000 
245826639 1609466956.000000 0.733138 1 0.821429 
245826650 1609478948.000000 1.202346 0 0.000000 
245826662 1609490948.000000 1.681329 0 0.000000 
245826674 1609502956.000000 1.911046 0 0.000000 
245826686 1609514968.000000 1.964809 0 0.000000 
245826698 1609526968.000000 1.959922 0 0.000000 
245826710 1609538976.000000 1.964809 0 0.000000 
245826722 1609550976.000000 1.945259 0 0.000000 
245826734 1609562976.000000 1.935484 0 0.000000 
245826746 1609574984.000000 1.925709 0 0.000000 
245826758 1609586984.000000 1.915934 0 0.000000 
245826770 1609598996.000000 1.925709 0 0.000000 
245826782 1609610992.000000 1.925709 0 0.000000 
245826794 1609622992.000000 1.930596 0 0.000000 
245826806 1609634992.000000 1.945259 0 0.000000 
245826818 1609646984.000000 1.940372 0 0.000000 
245826830 1609658992.000000 1.955034 0 0.000000 
245826842 1609670992.000000 1.945259 0 0.000000 
245826854 1609682996.000000 1.945259 0 0.000000 
245826866 1609694992.000000 1.945259 0 0.000000 
245826878 1609706992.000000 1.935484 0 0.000000 
245826890 1609719000.000000 1.940372 0 0.000000 
245826902 1609731008.000000 1.935484 0 0.000000 
245826914 1609743016.000000 1.886608 0 0.000000 
245826926 1609755008.000000 1.827957 0 0.000000 
245826938 1609767004.000000 1.764418 0 0.000000 
245826950 1609779008.000000 1.710655 0 0.000000 
245826962 1609791008.000000 1.686217 0 0.000000 
245826974 1609803012.000000 1.691105 0 0.000000 
245826986 1609815016.000000 1.700880 0 0.000000 
245826998 1609827012.000000 1.705767 0 0.000000 
245827010 1609839020.000000 1.720430 0 0.000000 
245827022 1609851020.000000 1.720430 0 0.000000 
245827034 1609863016.000000 1.730205 0 0.000000 
245827046 1609875012.000000 1.759531 0 0.000000 
245827058 1609887016.000000 1.749756 0 0.000000 
245827070 1609899020.000000 1.774194 0 0.000000 
245827082 1609911020.000000 1.779081 0 0.000000 
245827094 1609923012.000000 1.769306 0 0.000000 
245827106 1609935012.000000 1.774194 0 0.000000 
245827118 1609947012.000000 1.764418 0 0.000000 
245827130 1609959020.000000 1.769306 0 0.000000 
245827142 1609971020.000000 1.754643 0 0.000000 
245827154 1609983028.000000 1.749756 0 0.000000 
245827166 1609995020.000000 1.779081 0 0.000000 
245827178 1610007020.000000 1.754643 0 0.000000 
245827190 1610019020.000000 1.769306 0 0.000000 
245827202 1610031016.000000 1.779081 0 0.000000 
245827214 1610043012.000000 1.769306 0 0.000000 
245827226 1610055012.000000 1.783969 0 0.000000 
245827238 1610067012.000000 1.774194 0 0.000000 
245827250 1610079012.000000 1.774194 0 0.000000 
245827262 1610091020.000000 1.764418 0 0.000000 
245827274 1610103028.000000 1.774194 0 0.000000 
245827286 1610115036.000000 1.769306 0 0.000000 
245827298 1610127036.000000 1.813294 0 0.000000 
245827310 1610139056.000000 1.940372 0 0.000000 
245827322 1610151060.000000 2.008798 0 0.000000 
245827334 1610163048.000000 1.989247 0 0.000000 
245827346 1610175048.000000 1.847507 0 0.000000 
245827358 1610187048.000000 1.715543 0 0.000000 
245827370 1610199060.000000 1.691105 0 0.000000 
245827382 1610211052.000000 1.681329 0 0.000000 
245827394 1610223060.000000 1.681329 0 0.000000 
245827406 1610235072.000000 1.715543 0 0.000000 
245827418 1610247068.000000 1.720430 0 0.000000 
245827430 1610259064.000000 1.730205 0 0.000000 
245827442 1610271052.000000 1.647116 0 0.000000 
245827454 1610283060.000000 2.062561 0 0.000000 
245827466 1610295052.000000 2.570870 0 0.000000 
245827478 1610307048.000000 1.026393 0 0.000000 
245827491 1610319044.000000 0.840665 1 0.845238 
245827502 1610331028.000000 1.388074 0 0.000000 
245827514 1610343028.000000 1.774194 0 0.000000 
245827526 1610355040.000000 1.925709 0 0.000000 
245827538 1610367040.000000 1.959922 0 0.000000 
245827550 1610379040.000000 1.959922 0 0.000000 
245827562 1610391048.000000 1.940372 0 0.000000 
245827574 1610403048.000000 1.945259 0 0.000000 
245827586 1610415048.000000 1.930596 0 0.000000 
245827598 1610427048.000000 1.906158 0 0.000000 
245827610 1610439048.000000 1.925709 0 0.000000 
245827622 1610451048.000000 1.920821 0 0.000000 
245827634 1610463040.000000 1.935484 0 0.000000 
245827646 1610475048.000000 1.974585 0 0.000000 
245827658 1610487056.000000 1.945259 0 0.000000 
245827670 1610499056.000000 1.959922 0 0.000000 
245827682 1610511064.000000 1.964809 0 0.000000 
245827694 1610523064.000000 1.959922 0 0.000000 
245827706 1610535072.000000 1.959922 0 0.000000 
245827718 1610547072.000000 1.955034 0 0.000000 
245827730 1610559072.000000 1.959922 0 0.000000 
245827742 1610571072.000000 1.964809 0 0.000000 
245827754 1610583076.000000 1.945259 0 0.000000 
245827766 1610595068.000000 1.881720 0 0.000000 
245827778 1610607068.000000 1.798631 0 0.000000 
245827790 1610619072.000000 1.749756 0 0.000000 
245827802 1610631060.000000 1.695992 0 0.000000 
245827814 1610643068.000000 1.676442 0 0.000000 
245827826 1610655068.000000 1.691105 0 0.000000 
245827838 1610667072.000000 1.681329 0 0.000000 
245827850 1610679080.000000 1.700880 0 0.000000 
245827862 1610691080.000000 1.700880 0 0.000000 
245827874 1610703080.000000 1.710655 0 0.000000 
245827886 1610715080.000000 1.715543 0 0.000000 
245827898 1610727084.000000 1.720430 0 0.000000 
245827910 1610739088.000000 1.739980 0 0.000000 
245827922 1610751084.000000 1.735093 0 0.000000 
245827934 1610763088.000000 1.744868 0 0.000000 
245827946 1610775076.000000 1.754643 0 0.000000 
245827958 1610787080.000000 1.749756 0 0.000000 
245827970 1610799076.000000 1.759531 0 0.000000 
245827982 1610811076.000000 1.759531 0 0.000000 
245827994 1610823076.000000 1.764418 0 0.000000 
245828006 1610835084.000000 1.779081 0 0.000000 
245828018 1610847076.000000 1.769306 0 0.000000 
245828030 1610859076.000000 1.783969 0 0.000000 
245828042 1610871068.000000 1.759531 0 0.000000 
245828054 1610883068.000000 1.754643 0 0.000000 
245828066 1610895068.000000 1.754643 0 0.000000 
245828078 1610907072.000000 1.739980 0 0.000000 
245828090 1610919076.000000 1.769306 0 0.000000 
245828102 1610931068.000000 1.764418 0 0.000000 
245828114 1610943076.000000 1.769306 0 0.000000 
245828126 1610955076.000000 1.788856 0 0.000000 
245828138 1610967088.000000 1.774194 0 0.000000 
245828150 1610979096.000000 1.867058 0 0.000000 
245828162 1610991096.000000 1.999022 0 0.000000 
245828174 1611003092.000000 2.077224 0 0.000000 
245828186 1611015092.000000 2.033236 0 0.000000 
245828198 1611027096.000000 1.871945 0 0.000000 
245828210 1611039104.000000 1.749756 0 0.000000 
245828222 1611051104.000000 1.700880 0 0.000000 
245828234 1611063096.000000 1.681329 0 0.000000 
245828246 1611075104.000000 1.681329 0 0.000000 
245828258 1611087108.000000 1.676442 0 0.000000 
245828270 1611099120.000000 1.715543 0 0.000000 
245828282 1611111128.000000 1.715543 0 0.000000 
245828294 1611123132.000000 1.637341 0 0.000000 
245828306 1611135148.000000 2.165200 0 0.000000 
245828318 1611147140.000000 2.341153 0 0.000000 
245828330 1611159156.000000 0.889541 0 0.000000 
245828343 1611171140.000000 0.874878 1 0.845238 
245828354 1611183148.000000 1.461388 0 0.000000 
245828367 1611195156.000000 1.832845 0 0.000000 
245828378 1611207168.000000 1.940372 0 0.000000 
245828390 1611219168.000000 1.964809 0 0.000000 
245828402 1611231168.000000 1.964809 0 0.000000 
245828414 1611243168.000000 1.945259 0 0.000000 
245828426 1611255168.000000 1.940372 0 0.000000 
245828438 1611267176.000000 1.940372 0 0.000000 
245828450 1611279176.000000 1.940372 0 0.000000 
245828462 1611291176.000000 1.935484 0 0.000000 
245828474 1611303184.000000 1.959922 0 0.000000 
245828486 1611315192.000000 1.984360 0 0.000000 
245828498 1611327200.000000 1.999022 0 0.000000 
245828510 1611339196.000000 2.043011 0 0.000000 
245828523 1611351188.000000 2.047898 0 0.000000 
245828534 1611363180.000000 2.033236 0 0.000000 
245828546 1611375180.000000 2.033236 0 0.000000 
245828558 1611387180.000000 2.018573 0 0.000000 
245828570 1611399188.000000 1.979472 0 0.000000 
245828582 1611411192.000000 1.974585 0 0.000000 
245828594 1611423192.000000 1.969697 0 0.000000 
245828606 1611435192.000000 1.940372 0 0.000000 
245828618 1611447192.000000 1.832845 0 0.000000 
245828630 1611459200.000000 1.749756 0 0.000000 
245828642 1611471196.000000 1.661779 0 0.000000 
245828654 1611483208.000000 1.608016 0 0.000000 
245828666 1611495196.000000 1.588465 0 0.000000 
245828678 1611507196.000000 1.573803 0 0.000000 
245828690 1611519196.000000 1.588465 0 0.000000 
245828702 1611531196.000000 1.573803 0 0.000000 
245828714 1611543196.000000 1.578690 0 0.000000 
245828726 1611555200.000000 1.612903 0 0.000000 
245828738 1611567204.000000 1.627566 0 0.000000 
245828750 1611579204.000000 1.656891 0 0.000000 
245828762 1611591208.000000 1.681329 0 0.000000 
245828774 1611603216.000000 1.710655 0 0.000000 
245828786 1611615216.000000 1.730205 0 0.000000 
245828798 1611627208.000000 1.744868 0 0.000000 
245828810 1611639188.000000 1.764418 0 0.000000 
245828822 1611651196.000000 1.774194 0 0.000000 
245828834 1611663208.000000 1.808407 0 0.000000 
245828846 1611675192.000000 1.827957 0 0.000000 
245828858 1611687188.000000 1.803519 0 0.000000 
245828870 1611699192.000000 1.842620 0 0.000000 
245828882 1611711192.000000 1.847507 0 0.000000 
245828894 1611723196.000000 1.832845 0 0.000000 
245828906 1611735212.000000 1.803519 0 0.000000 
245828918 1611747204.000000 1.774194 0 0.000000 
245828930 1611759212.000000 1.779081 0 0.000000 
245828942 1611771212.000000 1.779081 0 0.000000 
245828954 1611783216.000000 1.881720 0 0.000000 
245828966 1611795216.000000 1.964809 0 0.000000 
245828979 1611807212.000000 2.018573 0 0.000000 
245828990 1611819208.000000 1.969697 0 0.000000 
245829002 1611831196.000000 1.818182 0 0.000000 
245829014 1611843208.000000 1.749756 0 0.000000 
245829026 1611855204.000000 1.754643 0 0.000000 
245829038 1611867208.000000 1.744868 0 0.000000 
245829050 1611879188.000000 1.769306 0 0.000000 
245829062 1611891188.000000 1.774194 0 0.000000 
245829074 1611903196.000000 1.764418 0 0.000000 
245829086 1611915204.000000 1.754643 0 0.000000 
245829098 1611927208.000000 1.686217 0 0.000000 
245829110 1611939212.000000 2.536657 0 0.000000 
245829122 1611951220.000000 2.003910 0 0.000000 
245829136 1611963196.000000 0.889541 1 0.785714 
245829146 1611975176.000000 1.133920 0 0.000000 
245829158 1611987184.000000 1.671554 0 0.000000 
245829170 1611999192.000000 1.974585 0 0.000000 
245829182 1612011188.000000 2.028348 0 0.000000 
245829194 1612023180.000000 2.033236 0 0.000000 
245829206 1612035180.000000 2.023460 0 0.000000 
245829218 1612047172.000000 2.038123 0 0.000000 
245829230 1612059172.000000 2.038123 0 0.000000 
245829242 1612071172.000000 2.028348 0 0.000000 
245829254 1612083164.000000 2.018573 0 0.000000 
245829266 1612095164.000000 2.003910 0 0.000000 
245829278 1612107152.000000 1.979472 0 0.000000 
245829290 1612119160.000000 1.989247 0 0.000000 
245829302 1612131156.000000 2.003910 0 0.000000 
245829314 1612143140.000000 2.003910 0 0.000000 
245829326 1612155124.000000 2.008798 0 0.000000 
245829338 1612167120.000000 1.999022 0 0.000000 
245829350 1612179116.000000 2.013685 0 0.000000 
245829362 1612191124.000000 2.003910 0 0.000000 
245829374 1612203112.000000 1.999022 0 0.000000 
245829386 1612215104.000000 1.999022 0 0.000000 
245829398 1612227104.000000 1.984360 0 0.000000 
245829410 1612239108.000000 1.911046 0 0.000000 
245829422 1612251112.000000 1.827957 0 0.000000 
245829434 1612263108.000000 1.774194 0 0.000000 
245829446 1612275120.000000 1.700880 0 0.000000 
245829459 1612287116.000000 1.666667 0 0.000000 
245829470 1612299108.000000 1.681329 0 0.000000 
245829482 1612311120.000000 1.710655 0 0.000000 
245829494 1612323120.000000 1.715543 0 0.000000 
245829506 1612335132.000000 1.759531 0 0.000000 
245829518 1612347128.000000 1.744868 0 0.000000 
245829530 1612359108.000000 1.759531 0 0.000000 
245829542 1612371116.000000 1.759531 0 0.000000 
245829554 1612383108.000000 1.774194 0 0.000000 
245829566 1612395116.000000 1.769306 0 0.000000 
245829578 1612407116.000000 1.774194 0 0.000000 
245829590 1612419124.000000 1.798631 0 0.000000 
245829602 1612431128.000000 1.808407 0 0.000000 
245829614 1612443112.000000 1.808407 0 0.000000 
245829626 1612455092.000000 1.803519 0 0.000000 
245829638 1612467084.000000 1.813294 0 0.000000 
245829650 1612479092.000000 1.813294 0 0.000000 
245829662 1612491108.000000 1.803519 0 0.000000 
245829674 1612503108.000000 1.793744 0 0.000000 
245829686 1612515112.000000 1.788856 0 0.000000 
245829698 1612527116.000000 1.823069 0 0.000000 
245829710 1612539120.000000 1.920821 0 0.000000 
245829722 1612551116.000000 2.003910 0 0.000000 
245829734 1612563100.000000 2.043011 0 0.000000 
245829746 1612575096.000000 1.984360 0 0.000000 
245829758 1612587100.000000 1.823069 0 0.000000 
245829770 1612599096.000000 1.700880 0 0.000000 
245829782 1612611092.000000 1.652004 0 0.000000 
245829794 1612623084.000000 1.652004 0 0.000000 
245829806 1612635076.000000 1.666667 0 0.000000 
245829818 1612647076.000000 1.676442 0 0.000000 
245829830 1612659080.000000 1.700880 0 0.000000 
245829842 1612671080.000000 1.686217 0 0.000000 
245829854 1612683076.000000 1.603128 0 0.000000 
245829866 1612695076.000000 2.043011 0 0.000000 
245829878 1612707068.000000 2.306940 0 0.000000 
245829890 1612719068.000000 0.923754 0 0.000000 
245829903 1612731060.000000 0.899316 1 0.761905 
245829914 1612743052.000000 1.471163 0 0.000000 
245829926 1612755060.000000 1.823069 0 0.000000 
245829938 1612767056.000000 1.935484 0 0.000000 
245829950 1612779064.000000 1.964809 0 0.000000 
245829962 1612791072.000000 1.959922 0 0.000000 
245829974 1612803084.000000 1.955034 0 0.000000 
245829986 1612815080.000000 1.935484 0 0.000000 
245829998 1612827084.000000 1.911046 0 0.000000 
245830010 1612839088.000000 1.915934 0 0.000000 
245830022 1612851084.000000 1.911046 0 0.000000 
245830034 1612863088.000000 1.930596 0 0.000000 
245830046 1612875088.000000 1.950147 0 0.000000 
245830058 1612887092.000000 1.945259 0 0.000000 
245830070 1612899088.000000 1.964809 0 0.000000 
245830082 1612911088.000000 1.964809 0 0.000000 
245830094 1612923088.000000 1.969697 0 0.000000 
245830106 1612935080.000000 1.994135 0 0.000000 
245830118 1612947080.000000 1.999022 0 0.000000 
245830130 1612959080.000000 1.999022 0 0.000000 
245830142 1612971080.000000 1.994135 0 0.000000 
245830154 1612983072.000000 1.989247 0 0.000000 
245830166 1612995072.000000 1.915934 0 0.000000 
245830178 1613007080.000000 1.818182 0 0.000000 
245830190 1613019084.000000 1.769306 0 0.000000 
245830202 1613031084.000000 1.691105 0 0.000000 
245830214 1613043088.000000 1.671554 0 0.000000 
245830226 1613055096.000000 1.671554 0 0.000000 
245830238 1613067096.000000 1.671554 0 0.000000 
245830250 1613079100.000000 1.695992 0 0.000000 
245830262 1613091112.000000 1.725318 0 0.000000 
245830274 1613103124.000000 1.744868 0 0.000000 
245830286 1613115108.000000 1.779081 0 0.000000 
245830298 1613127100.000000 1.769306 0 0.000000 
245830310 1613139100.000000 1.774194 0 0.000000 
245830322 1613151104.000000 1.779081 0 0.000000 
245830334 1613163100.000000 1.774194 0 0.000000 
245830346 1613175108.000000 1.779081 0 0.000000 
245830358 1613187116.000000 1.749756 0 0.000000 
245830370 1613199112.000000 1.749756 0 0.000000 
245830382 1613211112.000000 1.749756 0 0.000000 
245830394 1613223112.000000 1.725318 0 0.000000 
245830406 1613235116.000000 1.720430 0 0.000000 
245830418 1613247120.000000 1.715543 0 0.000000 
245830430 1613259124.000000 1.735093 0 0.000000 
245830442 1613271124.000000 1.759531 0 0.000000 
245830454 1613283116.000000 1.774194 0 0.000000 
245830466 1613295124.000000 1.798631 0 0.000000 
245830478 1613307124.000000 1.798631 0 0.000000 
245830490 1613319136.000000 1.808407 0 0.000000 
245830502 1613331128.000000 1.842620 0 0.000000 
245830514 1613343120.000000 1.915934 0 0.000000 
245830526 1613355124.000000 2.033236 0 0.000000 
245830538 1613367116.000000 2.013685 0 0.000000 
245830550 1613379116.000000 1.886608 0 0.000000 
245830562 1613391112.000000 1.739980 0 0.000000 
245830574 1613403108.000000 1.691105 0 0.000000 
245830586 1613415112.000000 1.700880 0 0.000000 
245830598 1613427108.000000 1.681329 0 0.000000 
245830610 1613439116.000000 1.695992 0 0.000000 
245830622 1613451120.000000 1.735093 0 0.000000 
245830634 1613463120.000000 1.730205 0 0.000000 
245830646 1613475112.000000 1.686217 0 0.000000 
245830658 1613487124.000000 1.739980 0 0.000000 
245830670 1613499116.000000 2.634409 0 0.000000 
245830682 1613511116.000000 1.378299 0 0.000000 
245830695 1613523116.000000 0.752688 1 0.785714 
245830706 1613535108.000000 1.217009 0 0.000000 
245830718 1613547108.000000 1.691105 0 0.000000 
245830730 1613559100.000000 1.891496 0 0.000000 
245830742 1613571108.000000 1.935484 0 0.000000 
245830754 1613583112.000000 1.950147 0 0.000000 
245830766 1613595112.000000 1.945259 0 0.000000 
245830778 1613607112.000000 1.930596 0 0.000000 
245830790 1613619112.000000 1.925709 0 0.000000 
245830802 1613631112.000000 1.906158 0 0.000000 
245830814 1613643120.000000 1.901271 0 0.000000 
245830826 1613655108.000000 1.891496 0 0.000000 
245830838 1613667104.000000 1.925709 0 0.000000 
245830850 1613679104.000000 1.920821 0 0.000000 
245830862 1613691092.000000 1.930596 0 0.000000 
245830874 1613703096.000000 1.935484 0 0.000000 
245830886 1613715104.000000 1.945259 0 0.000000 
245830898 1613727104.000000 1.964809 0 0.000000 
245830910 1613739104.000000 1.979472 0 0.000000 
245830922 1613751104.000000 1.989247 0 0.000000 
245830934 1613763104.000000 1.979472 0 0.000000 
245830946 1613775112.000000 1.979472 0 0.000000 
245830958 1613787112.000000 1.945259 0 0.000000 
245830970 1613799112.000000 1.886608 0 0.000000 
245830982 1613811108.000000 1.793744 0 0.000000 
245830994 1613823120.000000 1.725318 0 0.000000 
245831006 1613835124.000000 1.681329 0 0.000000 
245831018 1613847132.000000 1.652004 0 0.000000 
245831030 1613859116.000000 1.681329 0 0.000000 
245831042 1613871132.000000 1.686217 0 0.000000 
245831054 1613883132.000000 1.695992 0 0.000000 
245831066 1613895136.000000 1.730205 0 0.000000 
245831078 1613907128.000000 1.725318 0 0.000000 
245831090 1613919136.000000 1.744868 0 0.000000 
245831102 1613931116.000000 1.754643 0 0.000000 
245831114 1613943116.000000 1.774194 0 0.000000 
245831126 1613955128.000000 1.744868 0 0.000000 
245831138 1613967112.000000 1.730205 0 0.000000 
245831150 1613979104.000000 1.739980 0 0.000000 
245831162 1613991104.000000 1.749756 0 0.000000 
245831174 1614003092.000000 1.754643 0 0.000000 
245831186 1614015092.000000 1.759531 0 0.000000 
245831198 1614027096.000000 1.749756 0 0.000000 
245831210 1614039092.000000 1.754643 0 0.000000 
245831222 1614051084.000000 1.779081 0 0.000000 
245831234 1614063076.000000 1.769306 0 0.000000 
245831246 1614075076.000000 1.769306 0 0.000000 
245831258 1614087068.000000 1.769306 0 0.000000 
245831270 1614099060.000000 1.779081 0 0.000000 
245831282 1614111052.000000 1.783969 0 0.000000 
245831294 1614123052.000000 1.783969 0 0.000000 
245831306 1614135044.000000 1.783969 0 0.000000 
245831318 1614147044.000000 1.774194 0 0.000000 
245831330 1614159056.000000 1.779081 0 0.000000 
245831342 1614171044.000000 1.803519 0 0.000000 
245831354 1614183044.000000 1.881720 0 0.000000 
245831366 1614195048.000000 1.999022 0 0.000000 
245831378 1614207048.000000 1.994135 0 0.000000 
245831390 1614219040.000000 1.896383 0 0.000000 
245831402 1614231036.000000 1.764418 0 0.000000 
245831414 1614243048.000000 1.715543 0 0.000000 
245831426 1614255052.000000 1.705767 0 0.000000 
245831438 1614267064.000000 1.710655 0 0.000000 
245831450 1614279060.000000 1.695992 0 0.000000 
245831462 1614291072.000000 1.710655 0 0.000000 
245831474 1614303072.000000 1.710655 0 0.000000 
245831486 1614315068.000000 1.691105 0 0.000000 
245831498 1614327060.000000 1.642229 0 0.000000 
245831510 1614339068.000000 2.487781 0 0.000000 
245831522 1614351068.000000 1.759531 0 0.000000 
245831536 1614363068.000000 0.796676 1 0.833333 
245831546 1614375056.000000 1.065494 0 0.000000 
245831558 1614387044.000000 1.568915 0 0.000000 
245831570 1614399056.000000 1.837732 0 0.000000 
245831582 1614411060.000000 1.911046 0 0.000000 
245831594 1614423068.000000 1.930596 0 0.000000 
245831606 1614435064.000000 1.920821 0 0.000000 
245831618 1614447056.000000 1.896383 0 0.000000 
245831630 1614459056.000000 1.871945 0 0.000000 
245831642 1614471056.000000 1.871945 0 0.000000 
245831654 1614483064.000000 1.867058 0 0.000000 
245831666 1614495052.000000 1.876833 0 0.000000 
245831678 1614507060.000000 1.857283 0 0.000000 
245831690 1614519064.000000 1.862170 0 0.000000 
245831702 1614531064.000000 1.901271 0 0.000000 
245831714 1614543056.000000 1.901271 0 0.000000 
245831726 1614555048.000000 1.906158 0 0.000000 
245831738 1614567056.000000 1.915934 0 0.000000 
245831750 1614579060.000000 1.891496 0 0.000000 
245831762 1614591064.000000 1.925709 0 0.000000 
245831774 1614603064.000000 1.847507 0 0.000000 
245831786 1614615064.000000 1.867058 0 0.000000 
245831798 1614627064.000000 1.871945 0 0.000000 
245831810 1614639072.000000 1.837732 0 0.000000 
245831822 1614651076.000000 1.759531 0 0.000000 
245831834 1614663076.000000 1.666667 0 0.000000 
245831846 1614675068.000000 1.588465 0 0.000000 
245831858 1614687060.000000 1.529814 0 0.000000 
245831870 1614699072.000000 1.485826 0 0.000000 
245831882 1614711072.000000 1.466276 0 0.000000 
245831894 1614723084.000000 1.451613 0 0.000000 
245831906 1614735088.000000 1.466276 0 0.000000 
245831918 1614747096.000000 1.490714 0 0.000000 
245831930 1614759092.000000 1.539589 0 0.000000 
245831942 1614771076.000000 1.568915 0 0.000000 
245831954 1614783084.000000 1.617791 0 0.000000 
245831966 1614795084.000000 1.647116 0 0.000000 
245831978 1614807092.000000 1.661779 0 0.000000 
245831990 1614819092.000000 1.695992 0 0.000000 
245832002 1614831096.000000 1.720430 0 0.000000 
245832014 1614843092.000000 1.754643 0 0.000000 
245832026 1614855096.000000 1.739980 0 0.000000 
245832038 1614867088.000000 1.735093 0 0.000000 
245832050 1614879084.000000 1.774194 0 0.000000 
245832062 1614891092.000000 1.783969 0 0.000000 
245832074 1614903084.000000 1.798631 0 0.000000 
245832086 1614915092.000000 1.832845 0 0.000000 
245832098 1614927092.000000 1.823069 0 0.000000 
245832110 1614939088.000000 1.847507 0 0.000000 
245832122 1614951088.000000 1.847507 0 0.000000 
245832134 1614963088.000000 1.867058 0 0.000000 
245832146 1614975088.000000 1.871945 0 0.000000 
245832158 1614987084.000000 1.876833 0 0.000000 
245832170 1614999092.000000 1.891496 0 0.000000 
245832182 1615011096.000000 1.950147 0 0.000000 
245832194 1615023100.000000 2.033236 0 0.000000 
245832206 1615035100.000000 2.028348 0 0.000000 
245832218 1615047096.000000 1.920821 0 0.000000 
245832230 1615059092.000000 1.798631 0 0.000000 
245832242 1615071096.000000 1.744868 0 0.000000 
245832254 1615083088.000000 1.735093 0 0.000000 
245832266 1615095088.000000 1.739980 0 0.000000 
245832278 1615107092.000000 1.739980 0 0.000000 
245832290 1615119084.000000 1.774194 0 0.000000 
245832302 1615131092.000000 1.769306 0 0.000000 
245832314 1615143096.000000 1.739980 0 0.000000 
245832326 1615155088.000000 1.705767 0 0.000000 
245832338 1615167084.000000 2.605083 0 0.000000 
245832350 1615179080.000000 1.715543 0 0.000000 
245832363 1615191088.000000 0.865103 1 0.821429 
245832374 1615203072.000000 1.168133 0 0.000000 
245832386 1615215076.000000 1.647116 0 0.000000 
245832398 1615227096.000000 1.901271 0 0.000000 
245832410 1615239088.000000 1.979472 0 0.000000 
245832422 1615251088.000000 1.989247 0 0.000000 
245832434 1615263088.000000 1.989247 0 0.000000 
245832446 1615275088.000000 1.989247 0 0.000000 
245832458 1615287088.000000 1.969697 0 0.000000 
245832470 1615299088.000000 1.959922 0 0.000000 
245832482 1615311088.000000 1.974585 0 0.000000 
245832494 1615323096.000000 1.989247 0 0.000000 
245832506 1615335096.000000 1.969697 0 0.000000 
245832518 1615347096.000000 1.964809 0 0.000000 
245832530 1615359096.000000 1.974585 0 0.000000 
245832542 1615371096.000000 1.999022 0 0.000000 
245832554 1615383096.000000 1.974585 0 0.000000 
245832566 1615395096.000000 1.999022 0 0.000000 
245832578 1615407092.000000 2.013685 0 0.000000 
245832590 1615419092.000000 2.013685 0 0.000000 
245832602 1615431096.000000 1.994135 0 0.000000 
245832614 1615443096.000000 1.999022 0 0.000000 
245832626 1615455084.000000 2.003910 0 0.000000 
245832638 1615467072.000000 1.925709 0 0.000000 
245832650 1615479072.000000 1.862170 0 0.000000 
245832662 1615491068.000000 1.783969 0 0.000000 
245832674 1615503072.000000 1.725318 0 0.000000 
245832686 1615515080.000000 1.710655 0 0.000000 
245832698 1615527076.000000 1.705767 0 0.000000 
245832710 1615539076.000000 1.720430 0 0.000000 
245832722 1615551076.000000 1.735093 0 0.000000 
245832734 1615563080.000000 1.749756 0 0.000000 
245832746 1615575084.000000 1.764418 0 0.000000 
245832758 1615587084.000000 1.769306 0 0.000000 
245832770 1615599084.000000 1.783969 0 0.000000 
245832782 1615611076.000000 1.798631 0 0.000000 
245832794 1615623076.000000 1.793744 0 0.000000 
245832806 1615635084.000000 1.798631 0 0.000000 
245832818 1615647084.000000 1.813294 0 0.000000 
245832830 1615659092.000000 1.818182 0 0.000000 
245832842 1615671096.000000 1.832845 0 0.000000 
245832854 1615683096.000000 1.803519 0 0.000000 
245832866 1615695092.000000 1.759531 0 0.000000 
245832878 1615707096.000000 1.744868 0 0.000000 
245832890 1615719088.000000 1.749756 0 0.000000 
245832902 1615731084.000000 1.803519 0 0.000000 
245832914 1615743084.000000 1.769306 0 0.000000 
245832926 1615755076.000000 1.788856 0 0.000000 
245832938 1615767084.000000 1.759531 0 0.000000 
245832950 1615779084.000000 1.818182 0 0.000000 
245832962 1615791092.000000 1.754643 0 0.000000 
245832974 1615803096.000000 1.739980 0 0.000000 
245832987 1615815096.000000 1.779081 0 0.000000 
245832998 1615827092.000000 1.774194 0 0.000000 
245833010 1615839104.000000 1.808407 0 0.000000 
245833022 1615851088.000000 1.867058 0 0.000000 
245833034 1615863080.000000 1.964809 0 0.000000 
245833046 1615875080.000000 2.023460 0 0.000000 
245833058 1615887068.000000 2.106549 0 0.000000 
245833070 1615899072.000000 1.950147 0 0.000000 
245833082 1615911080.000000 1.749756 0 0.000000 
245833094 1615923068.000000 1.735093 0 0.000000 
245833106 1615935068.000000 1.783969 0 0.000000 
245833118 1615947064.000000 1.808407 0 0.000000 
245833130 1615959060.000000 1.798631 0 0.000000 
245833142 1615971060.000000 1.813294 0 0.000000 
245833154 1615983072.000000 1.837732 0 0.000000 
245833166 1615995076.000000 1.823069 0 0.000000 
245833178 1616007068.000000 2.101662 0 0.000000 
245833190 1616019072.000000 2.741935 0 0.000000 
245833202 1616031076.000000 1.246334 0 0.000000 
245833215 1616043084.000000 0.835777 1 0.845238 
245833226 1616055068.000000 1.280547 0 0.000000 
245833238 1616067064.000000 1.730205 0 0.000000 
245833250 1616079064.000000 1.999022 0 0.000000 
245833262 1616091056.000000 1.999022 0 0.000000 
245833274 1616103052.000000 1.940372 0 0.000000 
245833286 1616115064.000000 1.969697 0 0.000000 
245833298 1616127064.000000 1.955034 0 0.000000 
245833310 1616139052.000000 2.033236 0 0.000000 
245833322 1616151044.000000 1.881720 0 0.000000 
245833334 1616163044.000000 1.852395 0 0.000000 
245833346 1616175052.000000 1.915934 0 0.000000 
245833358 1616187064.000000 1.901271 0 0.000000 
245833370 1616199056.000000 1.964809 0 0.000000 
245833382 1616211052.000000 2.043011 0 0.000000 
245833394 1616223036.000000 2.038123 0 0.000000 
245833406 1616235028.000000 2.072336 0 0.000000 
245833418 1616247028.000000 2.121212 0 0.000000 
245833430 1616259032.000000 1.964809 0 0.000000 
245833442 1616271032.000000 1.999022 0 0.000000 
245833454 1616283028.000000 2.096774 0 0.000000 
245833466 1616295020.000000 2.130987 0 0.000000 
245833478 1616307004.000000 2.018573 0 0.000000 
245833490 1616319008.000000 1.974585 0 0.000000 
245833502 1616331016.000000 1.827957 0 0.000000 
245833514 1616343016.000000 1.700880 0 0.000000 
245833526 1616355012.000000 1.656891 0 0.000000 
245833538 1616367024.000000 1.608016 0 0.000000 
245833550 1616379012.000000 1.529814 0 0.000000 
245833562 1616391016.000000 1.466276 0 0.000000 
245833574 1616403024.000000 1.495601 0 0.000000 
245833586 1616415020.000000 1.549365 0 0.000000 
245833598 1616427036.000000 1.622678 0 0.000000 
245833610 1616439036.000000 1.564027 0 0.000000 
245833622 1616451036.000000 1.642229 0 0.000000 
245833634 1616463044.000000 1.568915 0 0.000000 
245833646 1616475044.000000 1.568915 0 0.000000 
245833658 1616487044.000000 1.647116 0 0.000000 
245833670 1616499056.000000 1.700880 0 0.000000 
245833682 1616511044.000000 1.764418 0 0.000000 
245833694 1616523048.000000 1.749756 0 0.000000 
245833706 1616535044.000000 1.774194 0 0.000000 
245833718 1616547056.000000 1.847507 0 0.000000 
245833730 1616559052.000000 1.788856 0 0.000000 
245833742 1616571060.000000 1.788856 0 0.000000 
245833754 1616583068.000000 1.774194 0 0.000000 
245833766 1616595076.000000 1.774194 0 0.000000 
245833778 1616607084.000000 1.793744 0 0.000000 
245833790 1616619092.000000 1.803519 0 0.000000 
245833802 1616631088.000000 1.808407 0 0.000000 
245833814 1616643084.000000 1.818182 0 0.000000 
245833826 1616655084.000000 1.823069 0 0.000000 
245833838 1616667076.000000 1.783969 0 0.000000 
245833850 1616679080.000000 1.803519 0 0.000000 
245833862 1616691072.000000 1.847507 0 0.000000 
245833874 1616703080.000000 1.842620 0 0.000000 
245833886 1616715080.000000 1.862170 0 0.000000 
245833898 1616727084.000000 1.891496 0 0.000000 
245833910 1616739080.000000 1.930596 0 0.000000 
245833922 1616751076.000000 2.038123 0 0.000000 
245833934 1616763076.000000 2.150538 0 0.000000 
245833946 1616775076.000000 2.121212 0 0.000000 
245833958 1616787076.000000 2.082111 0 0.000000 
245833970 1616799080.000000 1.915934 0 0.000000 
245833983 1616811084.000000 1.681329 0 0.000000 
245833994 1616823092.000000 1.735093 0 0.000000 
245834006 1616835092.000000 1.798631 0 0.000000 
245834018 1616847096.000000 1.862170 0 0.000000 
245834030 1616859092.000000 1.881720 0 0.000000 
245834042 1616871096.000000 1.959922 0 0.000000 
245834054 1616883096.000000 1.832845 0 0.000000 
245834066 1616895104.000000 1.715543 0 0.000000 
245834078 1616907100.000000 2.688172 0 0.000000 
245834090 1616919104.000000 1.964809 0 0.000000 
245834103 1616931100.000000 0.884653 1 0.880952 
245834114 1616943088.000000 1.045943 0 0.000000 
245834126 1616955084.000000 1.632454 0 0.000000 
245834138 1616967096.000000 1.964809 0 0.000000 
245834150 1616979096.000000 1.832845 0 0.000000 
245834162 1616991092.000000 2.043011 0 0.000000 
245834174 1617003084.000000 2.140763 0 0.000000 
245834186 1617015088.000000 1.964809 0 0.000000 
245834198 1617027092.000000 1.945259 0 0.000000 
245834210 1617039084.000000 2.008798 0 0.000000 
245834222 1617051080.000000 1.930596 0 0.000000 
245834234 1617063080.000000 1.837732 0 0.000000 
245834246 1617075080.000000 1.945259 0 0.000000 
245834258 1617087076.000000 2.082111 0 0.000000 
245834270 1617099084.000000 1.881720 0 0.000000 
245834282 1617111088.000000 1.925709 0 0.000000 
245834294 1617123084.000000 2.082111 0 0.000000 
245834306 1617135084.000000 2.126100 0 0.000000 
245834318 1617147084.000000 2.008798 0 0.000000 
245834330 1617159072.000000 1.901271 0 0.000000 
245834342 1617171064.000000 1.969697 0 0.000000 
245834354 1617183064.000000 1.940372 0 0.000000 
245834366 1617195072.000000 1.994135 0 0.000000 
245834378 1617207072.000000 1.969697 0 0.000000 
245834390 1617219072.000000 1.852395 0 0.000000 
245834402 1617231076.000000 1.823069 0 0.000000 
245834414 1617243076.000000 1.632454 0 0.000000 
245834426 1617255084.000000 1.603128 0 0.000000 
245834438 1617267088.000000 1.671554 0 0.000000 
245834450 1617279096.000000 1.671554 0 0.000000 
245834462 1617291104.000000 1.691105 0 0.000000 
245834474 1617303096.000000 1.730205 0 0.000000 
245834486 1617315088.000000 1.700880 0 0.000000 
245834498 1617327084.000000 2.160313 0 0.000000 
245834510 1617339084.000000 1.720430 0 0.000000 
245834522 1617351088.000000 1.803519 0 0.000000 
245834534 1617363088.000000 1.612903 0 0.000000 
245834546 1617375096.000000 1.715543 0 0.000000 
245834558 1617387100.000000 1.818182 0 0.000000 
245834570 1617399108.000000 1.823069 0 0.000000 
245834582 1617411116.000000 1.779081 0 0.000000 
245834594 1617423108.000000 1.832845 0 0.000000 
245834606 1617435116.000000 1.764418 0 0.000000 
245834618 1617447124.000000 1.764418 0 0.000000 
245834630 1617459132.000000 1.754643 0 0.000000 
245834642 1617471132.000000 1.759531 0 0.000000 
245834654 1617483136.000000 1.779081 0 0.000000 
245834666 1617495132.000000 1.779081 0 0.000000 
245834678 1617507128.000000 1.837732 0 0.000000 
245834690 1617519136.000000 1.857283 0 0.000000 
245834702 1617531140.000000 1.891496 0 0.000000 
245834714 1617543144.000000 1.940372 0 0.000000 
245834726 1617555144.000000 1.945259 0 0.000000 
245834738 1617567140.000000 1.886608 0 0.000000 
245834750 1617579136.000000 1.808407 0 0.000000 
245834762 1617591120.000000 1.744868 0 0.000000 
245834774 1617603108.000000 1.759531 0 0.000000 
245834786 1617615112.000000 1.739980 0 0.000000 
245834798 1617627112.000000 1.886608 0 0.000000 
245834810 1617639112.000000 1.925709 0 0.000000 
245834822 1617651112.000000 1.925709 0 0.000000 
245834834 1617663108.000000 1.798631 0 0.000000 
245834846 1617675108.000000 1.637341 0 0.000000 
245834858 1617687116.000000 1.598240 0 0.000000 
245834870 1617699108.000000 1.608016 0 0.000000 
245834882 1617711116.000000 1.617791 0 0.000000 
245834894 1617723108.000000 1.627566 0 0.000000 
245834906 1617735116.000000 1.642229 0 0.000000 
245834918 1617747120.000000 1.671554 0 0.000000 
245834930 1617759124.000000 1.598240 0 0.000000 
245834942 1617771116.000000 1.632454 0 0.000000 
245834954 1617783124.000000 2.751711 0 0.000000 
245834966 1617795136.000000 1.490714 0 0.000000 
245834979 1617807132.000000 0.811339 1 0.869048 
245834991 1617819132.000000 1.221896 0 0.000000 
245835002 1617831124.000000 1.695992 0 0.000000 
245835014 1617843132.000000 1.764418 0 0.000000 
245835026 1617855140.000000 1.911046 0 0.000000 
245835038 1617867144.000000 1.955034 0 0.000000 
245835050 1617879144.000000 1.964809 0 0.000000 
245835062 1617891144.000000 1.950147 0 0.000000 
245835074 1617903140.000000 2.003910 0 0.000000 
245835086 1617915128.000000 1.979472 0 0.000000 
245835098 1617927136.000000 1.886608 0 0.000000 
245835110 1617939124.000000 1.881720 0 0.000000 
245835122 1617951128.000000 1.867058 0 0.000000 
245835134 1617963116.000000 1.881720 0 0.000000 
245835146 1617975112.000000 1.886608 0 0.000000 
245835158 1617987104.000000 1.920821 0 0.000000 
245835170 1617999096.000000 1.935484 0 0.000000 
245835182 1618011104.000000 1.950147 0 0.000000 
245835194 1618023112.000000 1.964809 0 0.000000 
245835206 1618035112.000000 1.950147 0 0.000000 
245835218 1618047120.000000 1.979472 0 0.000000 
245835230 1618059120.000000 1.999022 0 0.000000 
245835242 1618071120.000000 1.964809 0 0.000000 
245835254 1618083120.000000 1.906158 0 0.000000 
245835266 1618095124.000000 1.818182 0 0.000000 
245835278 1618107124.000000 1.759531 0 0.000000 
245835290 1618119124.000000 1.720430 0 0.000000 
245835302 1618131124.000000 1.676442 0 0.000000 
245835314 1618143124.000000 1.666667 0 0.000000 
245835326 1618155124.000000 1.656891 0 0.000000 
245835338 1618167132.000000 1.691105 0 0.000000 
245835350 1618179124.000000 1.681329 0 0.000000 
245835362 1618191128.000000 1.686217 0 0.000000 
245835374 1618203136.000000 1.700880 0 0.000000 
245835386 1618215136.000000 1.700880 0 0.000000 
245835398 1618227136.000000 1.715543 0 0.000000 
245835410 1618239144.000000 1.710655 0 0.000000 
245835422 1618251140.000000 1.705767 0 0.000000 
245835434 1618263152.000000 1.710655 0 0.000000 
245835446 1618275144.000000 1.710655 0 0.000000 
245835458 1618287144.000000 1.744868 0 0.000000 
245835470 1618299124.000000 1.774194 0 0.000000 
245835482 1618311132.000000 1.798631 0 0.000000 
245835494 1618323132.000000 1.818182 0 0.000000 
245835506 1618335140.000000 1.818182 0 0.000000 
245835518 1618347148.000000 1.783969 0 0.000000 
245835530 1618359140.000000 1.691105 0 0.000000 
245835542 1618371136.000000 1.612903 0 0.000000 
245835554 1618383140.000000 1.544477 0 0.000000 
245835566 1618395148.000000 1.539589 0 0.000000 
245835578 1618407132.000000 1.681329 0 0.000000 
245835590 1618419144.000000 1.827957 0 0.000000 
245835602 1618431152.000000 1.979472 0 0.000000 
245835614 1618443148.000000 2.067449 0 0.000000 
245835626 1618455140.000000 2.013685 0 0.000000 
245835638 1618467144.000000 1.959922 0 0.000000 
245835650 1618479152.000000 1.774194 0 0.000000 
245835662 1618491148.000000 1.461388 0 0.000000 
245835674 1618503156.000000 0.962854 0 0.000000 
245835686 1618515136.000000 1.011730 0 0.000000 
245835699 1618527124.000000 1.163245 1 0.714286 
245835710 1618539132.000000 1.217009 0 0.000000 
245835722 1618551132.000000 1.388074 0 0.000000 
245835734 1618563132.000000 1.417400 0 0.000000 
245835746 1618575132.000000 1.422287 0 0.000000 
245835758 1618587140.000000 1.539589 0 0.000000 
245835770 1618599132.000000 1.647116 0 0.000000 
245835782 1618611140.000000 1.637341 0 0.000000 
245835794 1618623152.000000 1.930596 0 0.000000 
245835806 1618635148.000000 2.727273 0 0.000000 
245835818 1618647148.000000 1.285435 0 0.000000 
245835830 1618659144.000000 1.001955 0 0.000000 
245835842 1618671132.000000 1.515152 0 0.000000 
245835854 1618683144.000000 1.945259 0 0.000000 
245835866 1618695140.000000 2.106549 0 0.000000 
245835878 1618707140.000000 2.116324 0 0.000000 
245835890 1618719148.000000 2.067449 0 0.000000 
245835902 1618731140.000000 2.003910 0 0.000000 
245835914 1618743120.000000 1.945259 0 0.000000 
245835926 1618755120.000000 1.906158 0 0.000000 
245835938 1618767120.000000 1.847507 0 0.000000 
245835950 1618779120.000000 1.808407 0 0.000000 
245835962 1618791108.000000 1.769306 0 0.000000 
245835974 1618803100.000000 1.754643 0 0.000000 
245835986 1618815100.000000 1.788856 0 0.000000 
245835998 1618827100.000000 1.813294 0 0.000000 
245836010 1618839112.000000 1.827957 0 0.000000 
245836022 1618851112.000000 1.837732 0 0.000000 
245836034 1618863124.000000 1.857283 0 0.000000 
245836046 1618875128.000000 1.862170 0 0.000000 
245836058 1618887124.000000 1.881720 0 0.000000 
245836070 1618899128.000000 1.886608 0 0.000000 
245836082 1618911120.000000 1.925709 0 0.000000 
245836094 1618923116.000000 1.881720 0 0.000000 
245836106 1618935116.000000 1.779081 0 0.000000 
245836118 1618947120.000000 1.652004 0 0.000000 
245836130 1618959104.000000 1.593353 0 0.000000 
245836142 1618971092.000000 1.559140 0 0.000000 
245836154 1618983096.000000 1.476051 0 0.000000 
245836166 1618995084.000000 1.471163 0 0.000000 
245836178 1619007096.000000 1.436950 0 0.000000 
245836190 1619019100.000000 1.510264 0 0.000000 
245836202 1619031100.000000 1.554252 0 0.000000 
245836214 1619043100.000000 1.554252 0 0.000000 
245836226 1619055108.000000 1.637341 0 0.000000 
245836238 1619067116.000000 1.642229 0 0.000000 
245836250 1619079124.000000 1.695992 0 0.000000 
245836262 1619091128.000000 1.739980 0 0.000000 
245836274 1619103128.000000 1.779081 0 0.000000 
245836286 1619115124.000000 1.881720 0 0.000000 
245836298 1619127128.000000 1.906158 0 0.000000 
245836310 1619139136.000000 1.984360 0 0.000000 
245836322 1619151140.000000 2.057673 0 0.000000 
245836334 1619163148.000000 2.106549 0 0.000000 
245836346 1619175140.000000 2.204301 0 0.000000 
245836358 1619187132.000000 2.194526 0 0.000000 
245836370 1619199140.000000 2.223851 0 0.000000 
245836382 1619211148.000000 2.218964 0 0.000000 
245836394 1619223156.000000 2.223851 0 0.000000 
245836406 1619235164.000000 2.287390 0 0.000000 
245836418 1619247164.000000 2.311828 0 0.000000 
245836430 1619259156.000000 2.306940 0 0.000000 
245836442 1619271148.000000 2.272727 0 0.000000 
245836454 1619283156.000000 2.223851 0 0.000000 
245836466 1619295164.000000 2.223851 0 0.000000 
245836478 1619307172.000000 2.267840 0 0.000000 
245836490 1619319172.000000 2.316715 0 0.000000 
245836502 1619331180.000000 2.355816 0 0.000000 
245836514 1619343180.000000 2.262952 0 0.000000 
245836526 1619355180.000000 2.096774 0 0.000000 
245836538 1619367184.000000 1.984360 0 0.000000 
245836550 1619379192.000000 1.935484 0 0.000000 
245836562 1619391200.000000 1.935484 0 0.000000 
245836574 1619403208.000000 1.925709 0 0.000000 
245836586 1619415208.000000 1.964809 0 0.000000 
245836598 1619427196.000000 2.003910 0 0.000000 
245836610 1619439180.000000 2.028348 0 0.000000 
245836622 1619451176.000000 1.974585 0 0.000000 
245836634 1619463180.000000 2.482893 0 0.000000 
245836646 1619475172.000000 2.531769 0 0.000000 
245836659 1619487180.000000 1.207234 1 0.952381 
245836670 1619499180.000000 1.182796 0 0.000000 
245836682 1619511176.000000 1.686217 0 0.000000 
245836694 1619523184.000000 1.969697 0 0.000000 
245836706 1619535180.000000 2.062561 0 0.000000 
245836718 1619547188.000000 1.999022 0 0.000000 
245836730 1619559172.000000 1.896383 0 0.000000 
245836742 1619571172.000000 1.769306 0 0.000000 
245836754 1619583176.000000 1.710655 0 0.000000 
245836766 1619595172.000000 1.666667 0 0.000000 
245836778 1619607164.000000 1.598240 0 0.000000 
245836790 1619619156.000000 1.534702 0 0.000000 
245836802 1619631156.000000 1.500489 0 0.000000 
245836814 1619643140.000000 1.461388 0 0.000000 
245836826 1619655152.000000 1.456501 0 0.000000 
245836838 1619667140.000000 1.397849 0 0.000000 
245836850 1619679144.000000 1.368524 0 0.000000 
245836862 1619691148.000000 1.378299 0 0.000000 
245836874 1619703148.000000 1.353861 0 0.000000 
245836886 1619715156.000000 1.432063 0 0.000000 
245836898 1619727148.000000 1.432063 0 0.000000 
245836910 1619739148.000000 1.515152 0 0.000000 
245836922 1619751148.000000 1.588465 0 0.000000 
245836934 1619763148.000000 1.583578 0 0.000000 
245836946 1619775160.000000 1.612903 0 0.000000 
245836958 1619787164.000000 1.554252 0 0.000000 
245836970 1619799172.000000 1.578690 0 0.000000 
245836982 1619811164.000000 1.617791 0 0.000000 
245836994 1619823164.000000 1.603128 0 0.000000 
245837006 1619835168.000000 1.671554 0 0.000000 
245837018 1619847180.000000 1.686217 0 0.000000 
245837030 1619859180.000000 1.754643 0 0.000000 
245837042 1619871180.000000 1.788856 0 0.000000 
245837054 1619883180.000000 1.793744 0 0.000000 
245837066 1619895184.000000 1.837732 0 0.000000 
245837078 1619907192.000000 1.842620 0 0.000000 
245837090 1619919184.000000 1.871945 0 0.000000 
245837102 1619931188.000000 1.881720 0 0.000000 
245837114 1619943192.000000 1.871945 0 0.000000 
245837126 1619955196.000000 1.876833 0 0.000000 
245837138 1619967208.000000 1.842620 0 0.000000 
245837150 1619979204.000000 1.813294 0 0.000000 
245837162 1619991212.000000 1.813294 0 0.000000 
245837174 1620003220.000000 1.735093 0 0.000000 
245837186 1620015224.000000 1.739980 0 0.000000 
245837198 1620027212.000000 1.681329 0 0.000000 
245837210 1620039220.000000 1.656891 0 0.000000 
245837222 1620051232.000000 1.671554 0 0.000000 
245837234 1620063244.000000 1.710655 0 0.000000 
245837246 1620075236.000000 1.754643 0 0.000000 
245837258 1620087236.000000 1.695992 0 0.000000 
245837270 1620099236.000000 1.647116 0 0.000000 
245837282 1620111248.000000 1.612903 0 0.000000 
245837294 1620123256.000000 1.622678 0 0.000000 
245837306 1620135260.000000 1.759531 0 0.000000 
245837318 1620147260.000000 1.769306 0 0.000000 
245837330 1620159256.000000 1.686217 0 0.000000 
245837342 1620171264.000000 1.608016 0 0.000000 
245837354 1620183260.000000 1.510264 0 0.000000 
245837366 1620195260.000000 1.573803 0 0.000000 
245837378 1620207260.000000 1.598240 0 0.000000 
245837390 1620219256.000000 1.671554 0 0.000000 
245837402 1620231264.000000 1.749756 0 0.000000 
245837414 1620243256.000000 1.749756 0 0.000000 
245837426 1620255256.000000 1.896383 0 0.000000 
245837438 1620267256.000000 1.871945 0 0.000000 
245837450 1620279260.000000 2.697947 0 0.000000 
245837462 1620291260.000000 2.321603 0 0.000000 
245837476 1620303256.000000 1.060606 1 0.809524 
245837486 1620315236.000000 1.300098 0 0.000000 
245837498 1620327220.000000 1.818182 0 0.000000 
245837510 1620339228.000000 2.126100 0 0.000000 
245837522 1620351228.000000 2.243402 0 0.000000 
245837534 1620363228.000000 2.253177 0 0.000000 
245837546 1620375236.000000 2.238514 0 0.000000 
245837558 1620387244.000000 2.184751 0 0.000000 
245837570 1620399236.000000 2.116324 0 0.000000 
245837582 1620411236.000000 2.062561 0 0.000000 
245837594 1620423232.000000 1.999022 0 0.000000 
245837606 1620435228.000000 2.038123 0 0.000000 
245837618 1620447236.000000 1.999022 0 0.000000 
245837630 1620459232.000000 1.989247 0 0.000000 
245837642 1620471232.000000 1.974585 0 0.000000 
245837654 1620483240.000000 1.964809 0 0.000000 
245837666 1620495232.000000 1.979472 0 0.000000 
245837678 1620507232.000000 1.974585 0 0.000000 
245837690 1620519232.000000 1.964809 0 0.000000 
245837702 1620531236.000000 1.969697 0 0.000000 
245837714 1620543232.000000 1.979472 0 0.000000 
245837726 1620555232.000000 1.984360 0 0.000000 
245837738 1620567240.000000 1.940372 0 0.000000 
245837750 1620579236.000000 1.901271 0 0.000000 
245837762 1620591228.000000 1.803519 0 0.000000 
245837774 1620603232.000000 1.715543 0 0.000000 
245837786 1620615236.000000 1.656891 0 0.000000 
245837798 1620627236.000000 1.632454 0 0.000000 
245837810 1620639236.000000 1.617791 0 0.000000 
245837822 1620651240.000000 1.612903 0 0.000000 
245837834 1620663248.000000 1.608016 0 0.000000 
245837846 1620675248.000000 1.612903 0 0.000000 
245837858 1620687252.000000 1.598240 0 0.000000 
245837870 1620699244.000000 1.617791 0 0.000000 
245837882 1620711236.000000 1.666667 0 0.000000 
245837894 1620723236.000000 1.656891 0 0.000000 
245837906 1620735236.000000 1.666667 0 0.000000 
245837918 1620747236.000000 1.652004 0 0.000000 
245837930 1620759224.000000 1.686217 0 0.000000 
245837942 1620771232.000000 1.671554 0 0.000000 
245837954 1620783236.000000 1.652004 0 0.000000 
245837966 1620795220.000000 1.666667 0 0.000000 
245837978 1620807220.000000 1.652004 0 0.000000 
245837990 1620819204.000000 1.647116 0 0.000000 
245838002 1620831216.000000 1.671554 0 0.000000 
245838014 1620843224.000000 1.671554 0 0.000000 
245838026 1620855232.000000 1.671554 0 0.000000 
245838038 1620867244.000000 1.681329 0 0.000000 
245838050 1620879248.000000 1.749756 0 0.000000 
245838062 1620891248.000000 1.827957 0 0.000000 
245838074 1620903240.000000 1.832845 0 0.000000 
245838086 1620915248.000000 1.720430 0 0.000000 
245838098 1620927244.000000 1.549365 0 0.000000 
245838110 1620939260.000000 1.485826 0 0.000000 
245838122 1620951260.000000 1.520039 0 0.000000 
245838134 1620963236.000000 1.539589 0 0.000000 
245838146 1620975228.000000 1.588465 0 0.000000 
245838158 1620987228.000000 1.691105 0 0.000000 
245838170 1620999228.000000 1.647116 0 0.000000 
245838182 1621011240.000000 1.495601 0 0.000000 
245838194 1621023236.000000 1.759531 0 0.000000 
245838206 1621035236.000000 2.424242 0 0.000000 
245838219 1621047244.000000 0.801564 1 0.738095 
245838230 1621059228.000000 0.645161 0 0.000000 
245838242 1621071220.000000 1.383187 0 0.000000 
245838254 1621083220.000000 1.798631 0 0.000000 
245838266 1621095224.000000 1.896383 0 0.000000 
245838278 1621107220.000000 2.096774 0 0.000000 
245838290 1621119224.000000 1.994135 0 0.000000 
245838302 1621131220.000000 2.003910 0 0.000000 
245838314 1621143204.000000 2.096774 0 0.000000 
245838326 1621155204.000000 2.028348 0 0.000000 
245838338 1621167196.000000 2.038123 0 0.000000 
245838350 1621179188.000000 2.106549 0 0.000000 
245838362 1621191192.000000 1.989247 0 0.000000 
245838374 1621203188.000000 2.043011 0 0.000000 
245838386 1621215184.000000 1.984360 0 0.000000 
245838398 1621227192.000000 1.920821 0 0.000000 
245838410 1621239192.000000 1.984360 0 0.000000 
245838422 1621251200.000000 1.940372 0 0.000000 
245838434 1621263192.000000 1.950147 0 0.000000 
245838446 1621275192.000000 1.979472 0 0.000000 
245838458 1621287192.000000 1.920821 0 0.000000 
245838470 1621299188.000000 1.881720 0 0.000000 
245838482 1621311196.000000 1.832845 0 0.000000 
245838494 1621323204.000000 1.774194 0 0.000000 
245838506 1621335212.000000 1.676442 0 0.000000 
245838518 1621347212.000000 1.603128 0 0.000000 
245838530 1621359212.000000 1.573803 0 0.000000 
245838543 1621371220.000000 1.564027 0 0.000000 
245838554 1621383216.000000 1.627566 0 0.000000 
245838566 1621395220.000000 1.617791 0 0.000000 
245838578 1621407224.000000 1.671554 0 0.000000 
245838590 1621419228.000000 1.661779 0 0.000000 
245838602 1621431236.000000 1.656891 0 0.000000 
245838614 1621443252.000000 1.676442 0 0.000000 
245838626 1621455252.000000 1.705767 0 0.000000 
245838638 1621467260.000000 1.720430 0 0.000000 
245838650 1621479252.000000 1.720430 0 0.000000 
245838662 1621491252.000000 1.710655 0 0.000000 
245838674 1621503252.000000 1.705767 0 0.000000 
245838686 1621515260.000000 1.744868 0 0.000000 
245838698 1621527236.000000 1.764418 0 0.000000 
245838710 1621539252.000000 1.798631 0 0.000000 
245838722 1621551260.000000 1.827957 0 0.000000 
245838734 1621563252.000000 1.852395 0 0.000000 
245838746 1621575260.000000 1.862170 0 0.000000 
245838758 1621587260.000000 1.862170 0 0.000000 
245838770 1621599268.000000 1.876833 0 0.000000 
245838782 1621611260.000000 1.891496 0 0.000000 
245838794 1621623264.000000 1.935484 0 0.000000 
245838806 1621635268.000000 2.043011 0 0.000000 
245838818 1621647252.000000 2.165200 0 0.000000 
245838830 1621659244.000000 2.067449 0 0.000000 
245838842 1621671232.000000 1.901271 0 0.000000 
245838854 1621683228.000000 1.759531 0 0.000000 
245838866 1621695220.000000 1.759531 0 0.000000 
245838878 1621707220.000000 1.783969 0 0.000000 
245838890 1621719212.000000 1.793744 0 0.000000 
245838902 1621731212.000000 1.813294 0 0.000000 
245838914 1621743220.000000 1.813294 0 0.000000 
245838926 1621755244.000000 1.803519 0 0.000000 
245838938 1621767244.000000 1.691105 0 0.000000 
245838950 1621779228.000000 2.258065 0 0.000000 
245838962 1621791220.000000 2.365591 0 0.000000 
245838976 1621803228.000000 0.752688 1 0.750000 
245838986 1621815220.000000 0.860215 0 0.000000 
245838998 1621827212.000000 1.554252 0 0.000000 
245839010 1621839224.000000 1.969697 0 0.000000 
245839022 1621851220.000000 2.111437 0 0.000000 
245839034 1621863220.000000 2.130987 0 0.000000 
245839046 1621875212.000000 2.121212 0 0.000000 
245839058 1621887212.000000 2.091887 0 0.000000 
245839070 1621899204.000000 2.057673 0 0.000000 
245839082 1621911204.000000 2.028348 0 0.000000 
245839094 1621923200.000000 1.994135 0 0.000000 
245839106 1621935196.000000 2.028348 0 0.000000 
245839118 1621947188.000000 2.003910 0 0.000000 
245839130 1621959172.000000 2.018573 0 0.000000 
245839142 1621971164.000000 2.057673 0 0.000000 
245839154 1621983164.000000 2.018573 0 0.000000 
245839166 1621995168.000000 1.989247 0 0.000000 
245839178 1622007172.000000 2.003910 0 0.000000 
245839190 1622019160.000000 1.999022 0 0.000000 
245839202 1622031148.000000 2.028348 0 0.000000 
245839214 1622043144.000000 1.979472 0 0.000000 
245839226 1622055140.000000 2.003910 0 0.000000 
245839238 1622067116.000000 2.003910 0 0.000000 
245839250 1622079104.000000 1.955034 0 0.000000 
245839262 1622091100.000000 1.876833 0 0.000000 
245839274 1622103108.000000 1.774194 0 0.000000 
245839286 1622115108.000000 1.735093 0 0.000000 
245839298 1622127112.000000 1.700880 0 0.000000 
245839310 1622139100.000000 1.705767 0 0.000000 
245839322 1622151108.000000 1.720430 0 0.000000 
245839334 1622163108.000000 1.691105 0 0.000000 
245839346 1622175104.000000 1.710655 0 0.000000 
245839358 1622187104.000000 1.710655 0 0.000000 
245839370 1622199104.000000 1.715543 0 0.000000 
245839382 1622211108.000000 1.735093 0 0.000000 
245839394 1622223108.000000 1.774194 0 0.000000 
245839406 1622235116.000000 1.779081 0 0.000000 
245839418 1622247116.000000 1.779081 0 0.000000 
245839430 1622259108.000000 1.793744 0 0.000000 
245839442 1622271116.000000 1.783969 0 0.000000 
245839454 1622283108.000000 1.783969 0 0.000000 
245839466 1622295100.000000 1.774194 0 0.000000 
245839478 1622307108.000000 1.779081 0 0.000000 
245839490 1622319116.000000 1.754643 0 0.000000 
245839502 1622331116.000000 1.764418 0 0.000000 
245839514 1622343124.000000 1.764418 0 0.000000 
245839526 1622355132.000000 1.793744 0 0.000000 
245839538 1622367136.000000 1.788856 0 0.000000 
245839550 1622379132.000000 1.779081 0 0.000000 
245839562 1622391132.000000 1.769306 0 0.000000 
245839574 1622403136.000000 1.837732 0 0.000000 
245839586 1622415136.000000 1.950147 0 0.000000 
245839598 1622427132.000000 2.023460 0 0.000000 
245839610 1622439128.000000 1.959922 0 0.000000 
245839622 1622451136.000000 1.827957 0 0.000000 
245839634 1622463136.000000 1.725318 0 0.000000 
245839646 1622475148.000000 1.705767 0 0.000000 
245839658 1622487160.000000 1.671554 0 0.000000 
245839670 1622499160.000000 1.671554 0 0.000000 
245839682 1622511168.000000 1.705767 0 0.000000 
245839694 1622523164.000000 1.705767 0 0.000000 
245839706 1622535180.000000 1.695992 0 0.000000 
245839718 1622547180.000000 1.642229 0 0.000000 
245839730 1622559180.000000 2.521994 0 0.000000 
245839742 1622571188.000000 2.116324 0 0.000000 
245839756 1622583196.000000 0.757576 1 0.773810 
245839766 1622595188.000000 0.972630 0 0.000000 
245839778 1622607188.000000 1.603128 0 0.000000 
245839790 1622619192.000000 1.935484 0 0.000000 
245839802 1622631196.000000 2.018573 0 0.000000 
245839814 1622643188.000000 2.013685 0 0.000000 
245839826 1622655188.000000 2.003910 0 0.000000 
245839838 1622667168.000000 1.994135 0 0.000000 
245839850 1622679168.000000 1.989247 0 0.000000 
245839862 1622691168.000000 1.950147 0 0.000000 
245839874 1622703172.000000 1.891496 0 0.000000 
245839886 1622715168.000000 1.867058 0 0.000000 
245839898 1622727168.000000 1.867058 0 0.000000 
245839910 1622739164.000000 1.881720 0 0.000000 
245839922 1622751168.000000 1.906158 0 0.000000 
245839934 1622763172.000000 1.881720 0 0.000000 
245839946 1622775172.000000 1.881720 0 0.000000 
245839958 1622787176.000000 1.886608 0 0.000000 
245839970 1622799164.000000 1.911046 0 0.000000 
245839982 1622811176.000000 1.959922 0 0.000000 
245839994 1622823176.000000 1.896383 0 0.000000 
245840006 1622835176.000000 1.901271 0 0.000000 
245840018 1622847168.000000 1.901271 0 0.000000 
245840030 1622859160.000000 1.862170 0 0.000000 
245840042 1622871156.000000 1.803519 0 0.000000 
245840054 1622883148.000000 1.759531 0 0.000000 
245840066 1622895152.000000 1.739980 0 0.000000 
245840078 1622907148.000000 1.735093 0 0.000000 
245840090 1622919152.000000 1.730205 0 0.000000 
245840102 1622931140.000000 1.769306 0 0.000000 
245840114 1622943144.000000 1.705767 0 0.000000 
245840126 1622955148.000000 1.720430 0 0.000000 
245840138 1622967144.000000 1.749756 0 0.000000 
245840150 1622979140.000000 1.764418 0 0.000000 
245840162 1622991152.000000 1.788856 0 0.000000 
245840174 1623003164.000000 1.788856 0 0.000000 
245840186 1623015168.000000 1.827957 0 0.000000 
245840198 1623027168.000000 1.871945 0 0.000000 
245840210 1623039176.000000 1.989247 0 0.000000 
245840222 1623051176.000000 1.955034 0 0.000000 
245840234 1623063172.000000 1.764418 0 0.000000 
245840246 1623075180.000000 1.754643 0 0.000000 
245840258 1623087180.000000 1.832845 0 0.000000 
245840270 1623099184.000000 1.862170 0 0.000000 
245840282 1623111180.000000 1.876833 0 0.000000 
245840294 1623123184.000000 1.896383 0 0.000000 
245840306 1623135184.000000 1.920821 0 0.000000 
245840318 1623147184.000000 1.901271 0 0.000000 
245840330 1623159176.000000 1.906158 0 0.000000 
245840342 1623171176.000000 1.935484 0 0.000000 
245840354 1623183172.000000 1.852395 0 0.000000 
245840366 1623195184.000000 1.847507 0 0.000000 
245840378 1623207192.000000 1.945259 0 0.000000 
245840390 1623219188.000000 2.072336 0 0.000000 
245840402 1623231188.000000 2.023460 0 0.000000 
245840414 1623243188.000000 1.881720 0 0.000000 
245840426 1623255192.000000 1.739980 0 0.000000 
245840438 1623267180.000000 1.656891 0 0.000000 
245840450 1623279188.000000 1.691105 0 0.000000 
245840462 1623291180.000000 1.759531 0 0.000000 
245840474 1623303188.000000 1.803519 0 0.000000 
245840486 1623315176.000000 1.871945 0 0.000000 
245840498 1623327180.000000 1.891496 0 0.000000 
245840510 1623339180.000000 1.764418 0 0.000000 
245840522 1623351184.000000 1.827957 0 0.000000 
245840534 1623363180.000000 2.619746 0 0.000000 
245840546 1623375184.000000 1.158358 0 0.000000 
245840559 1623387196.000000 0.684262 1 0.797619 
245840570 1623399180.000000 1.270772 0 0.000000 
245840582 1623411180.000000 1.759531 0 0.000000 
245840594 1623423184.000000 1.959922 0 0.000000 
245840606 1623435184.000000 1.906158 0 0.000000 
245840618 1623447188.000000 1.876833 0 0.000000 
245840630 1623459192.000000 1.896383 0 0.000000 
245840642 1623471192.000000 1.935484 0 0.000000 
245840654 1623483204.000000 1.959922 0 0.000000 
245840666 1623495204.000000 1.950147 0 0.000000 
245840678 1623507204.000000 1.935484 0 0.000000 
245840690 1623519216.000000 1.945259 0 0.000000 
245840702 1623531212.000000 1.950147 0 0.000000 
245840714 1623543212.000000 1.974585 0 0.000000 
245840726 1623555224.000000 1.994135 0 0.000000 
245840738 1623567216.000000 1.999022 0 0.000000 
245840750 1623579212.000000 2.003910 0 0.000000 
245840762 1623591192.000000 1.994135 0 0.000000 
245840774 1623603192.000000 1.979472 0 0.000000 
245840786 1623615188.000000 2.008798 0 0.000000 
245840798 1623627184.000000 1.945259 0 0.000000 
245840810 1623639184.000000 1.925709 0 0.000000 
245840822 1623651180.000000 1.915934 0 0.000000 
245840834 1623663192.000000 1.867058 0 0.000000 
245840846 1623675184.000000 1.867058 0 0.000000 
245840858 1623687188.000000 1.730205 0 0.000000 
245840870 1623699172.000000 1.627566 0 0.000000 
245840882 1623711180.000000 1.520039 0 0.000000 
245840894 1623723180.000000 1.568915 0 0.000000 
245840906 1623735184.000000 1.622678 0 0.000000 
245840918 1623747188.000000 1.661779 0 0.000000 
245840930 1623759192.000000 1.686217 0 0.000000 
245840942 1623771204.000000 1.647116 0 0.000000 
245840954 1623783204.000000 1.598240 0 0.000000 
245840966 1623795188.000000 1.598240 0 0.000000 
245840978 1623807192.000000 1.622678 0 0.000000 
245840990 1623819212.000000 1.642229 0 0.000000 
245841003 1623831212.000000 1.686217 0 0.000000 
245841014 1623843220.000000 1.837732 0 0.000000 
245841026 1623855228.000000 1.705767 0 0.000000 
245841038 1623867228.000000 1.588465 0 0.000000 
245841050 1623879228.000000 1.637341 0 0.000000 
245841062 1623891236.000000 1.725318 0 0.000000 
245841074 1623903248.000000 1.715543 0 0.000000 
245841086 1623915240.000000 1.769306 0 0.000000 
245841098 1623927236.000000 1.808407 0 0.000000 
245841110 1623939228.000000 1.788856 0 0.000000 
245841122 1623951220.000000 1.783969 0 0.000000 
245841134 1623963220.000000 1.783969 0 0.000000 
245841146 1623975212.000000 1.808407 0 0.000000 
245841158 1623987212.000000 1.832845 0 0.000000 
245841170 1623999204.000000 1.798631 0 0.000000 
245841182 1624011216.000000 1.867058 0 0.000000 
245841194 1624023216.000000 1.945259 0 0.000000 
245841206 1624035204.000000 2.047898 0 0.000000 
245841218 1624047204.000000 2.033236 0 0.000000 
245841230 1624059204.000000 1.871945 0 0.000000 
245841242 1624071220.000000 1.705767 0 0.000000 
245841254 1624083220.000000 1.666667 0 0.000000 
245841266 1624095212.000000 1.691105 0 0.000000 
245841278 1624107204.000000 1.691105 0 0.000000 
245841290 1624119184.000000 1.671554 0 0.000000 
245841302 1624131196.000000 1.720430 0 0.000000 
245841314 1624143196.000000 1.676442 0 0.000000 
245841326 1624155204.000000 1.612903 0 0.000000 
245841338 1624167204.000000 2.043011 0 0.000000 
245841350 1624179196.000000 2.429130 0 0.000000 
245841363 1624191192.000000 1.011730 1 0.797619 
245841374 1624203172.000000 0.816227 0 0.000000 
245841386 1624215168.000000 1.368524 0 0.000000 
245841398 1624227176.000000 1.739980 0 0.000000 
245841410 1624239172.000000 1.891496 0 0.000000 
245841422 1624251168.000000 1.930596 0 0.000000 
245841434 1624263168.000000 1.930596 0 0.000000 
245841446 1624275168.000000 1.925709 0 0.000000 
245841458 1624287168.000000 1.920821 0 0.000000 
245841470 1624299164.000000 1.911046 0 0.000000 
245841482 1624311168.000000 1.920821 0 0.000000 
245841494 1624323164.000000 1.881720 0 0.000000 
245841506 1624335156.000000 1.881720 0 0.000000 
245841518 1624347156.000000 1.886608 0 0.000000 
245841530 1624359148.000000 1.881720 0 0.000000 
245841542 1624371152.000000 1.915934 0 0.000000 
245841554 1624383160.000000 1.915934 0 0.000000 
245841566 1624395176.000000 1.959922 0 0.000000 
245841578 1624407192.000000 1.964809 0 0.000000 
245841590 1624419192.000000 1.964809 0 0.000000 
245841602 1624431196.000000 2.018573 0 0.000000 
245841614 1624443188.000000 2.023460 0 0.000000 
245841626 1624455176.000000 2.033236 0 0.000000 
245841638 1624467176.000000 1.984360 0 0.000000 
245841650 1624479188.000000 1.896383 0 0.000000 
245841662 1624491188.000000 1.832845 0 0.000000 
245841674 1624503192.000000 1.749756 0 0.000000 
245841686 1624515188.000000 1.700880 0 0.000000 
245841698 1624527172.000000 1.676442 0 0.000000 
245841710 1624539192.000000 1.681329 0 0.000000 
245841722 1624551196.000000 1.700880 0 0.000000 
245841734 1624563188.000000 1.700880 0 0.000000 
245841746 1624575176.000000 1.725318 0 0.000000 
245841758 1624587188.000000 1.720430 0 0.000000 
245841770 1624599192.000000 1.749756 0 0.000000 
245841782 1624611188.000000 1.783969 0 0.000000 
245841794 1624623172.000000 1.769306 0 0.000000 
245841806 1624635164.000000 1.783969 0 0.000000 
245841818 1624647164.000000 1.774194 0 0.000000 
245841830 1624659172.000000 1.779081 0 0.000000 
245841842 1624671172.000000 1.793744 0 0.000000 
245841854 1624683188.000000 1.764418 0 0.000000 
245841866 1624695196.000000 1.764418 0 0.000000 
245841878 1624707204.000000 1.774194 0 0.000000 
245841890 1624719204.000000 1.739980 0 0.000000 
245841902 1624731204.000000 1.783969 0 0.000000 
245841914 1624743196.000000 1.774194 0 0.000000 
245841926 1624755212.000000 1.793744 0 0.000000 
245841938 1624767212.000000 1.793744 0 0.000000 
245841950 1624779220.000000 1.779081 0 0.000000 
245841962 1624791220.000000 1.803519 0 0.000000 
245841974 1624803212.000000 1.827957 0 0.000000 
245841986 1624815212.000000 1.793744 0 0.000000 
245841998 1624827220.000000 1.837732 0 0.000000 
245842010 1624839224.000000 1.955034 0 0.000000 
245842022 1624851220.000000 2.023460 0 0.000000 
245842034 1624863212.000000 2.023460 0 0.000000 
245842046 1624875212.000000 1.911046 0 0.000000 
245842058 1624887208.000000 1.749756 0 0.000000 
245842070 1624899204.000000 1.691105 0 0.000000 
245842082 1624911196.000000 1.700880 0 0.000000 
245842094 1624923196.000000 1.681329 0 0.000000 
245842106 1624935196.000000 1.676442 0 0.000000 
245842118 1624947204.000000 1.686217 0 0.000000 
245842130 1624959212.000000 1.691105 0 0.000000 
245842142 1624971212.000000 1.661779 0 0.000000 
245842154 1624983220.000000 1.715543 0 0.000000 
245842166 1624995216.000000 2.766373 0 0.000000 
245842178 1625007220.000000 1.588465 0 0.000000 
245842191 1625019212.000000 0.733138 1 0.821429 
245842202 1625031208.000000 1.143695 0 0.000000 
245842214 1625043212.000000 1.656891 0 0.000000 
245842226 1625055216.000000 1.891496 0 0.000000 
245842238 1625067212.000000 1.955034 0 0.000000 
245842250 1625079212.000000 1.945259 0 0.000000 
245842262 1625091212.000000 1.950147 0 0.000000 
245842274 1625103204.000000 1.935484 0 0.000000 
245842286 1625115212.000000 1.901271 0 0.000000 
245842298 1625127212.000000 1.876833 0 0.000000 
245842310 1625139224.000000 1.867058 0 0.000000 
245842322 1625151212.000000 1.896383 0 0.000000 
245842334 1625163216.000000 1.891496 0 0.000000 
245842346 1625175216.000000 1.911046 0 0.000000 
245842358 1625187212.000000 1.935484 0 0.000000 
245842370 1625199216.000000 1.925709 0 0.000000 
245842382 1625211212.000000 1.955034 0 0.000000 
245842394 1625223220.000000 1.930596 0 0.000000 
245842406 1625235212.000000 1.945259 0 0.000000 
245842418 1625247212.000000 1.930596 0 0.000000 
245842430 1625259216.000000 1.920821 0 0.000000 
245842442 1625271204.000000 1.940372 0 0.000000 
245842454 1625283212.000000 1.920821 0 0.000000 
245842466 1625295204.000000 1.891496 0 0.000000 
245842478 1625307204.000000 1.808407 0 0.000000 
245842490 1625319180.000000 1.754643 0 0.000000 
245842502 1625331180.000000 1.725318 0 0.000000 
245842514 1625343196.000000 1.705767 0 0.000000 
245842526 1625355204.000000 1.715543 0 0.000000 
245842538 1625367204.000000 1.754643 0 0.000000 
245842550 1625379204.000000 1.744868 0 0.000000 
245842562 1625391188.000000 1.759531 0 0.000000 
245842574 1625403180.000000 1.759531 0 0.000000 
245842586 1625415180.000000 1.754643 0 0.000000 
245842598 1625427180.000000 1.779081 0 0.000000 
245842610 1625439180.000000 1.759531 0 0.000000 
245842622 1625451180.000000 1.783969 0 0.000000 
245842634 1625463172.000000 1.774194 0 0.000000 
245842646 1625475180.000000 1.788856 0 0.000000 
245842658 1625487172.000000 1.842620 0 0.000000 
245842670 1625499164.000000 1.818182 0 0.000000 
245842682 1625511172.000000 1.837732 0 0.000000 
245842694 1625523180.000000 1.823069 0 0.000000 
245842706 1625535172.000000 1.827957 0 0.000000 
245842718 1625547172.000000 1.823069 0 0.000000 
245842730 1625559172.000000 1.808407 0 0.000000 
245842742 1625571152.000000 1.808407 0 0.000000 
245842754 1625583140.000000 1.798631 0 0.000000 
245842766 1625595148.000000 1.779081 0 0.000000 
245842778 1625607148.000000 1.769306 0 0.000000 
245842790 1625619140.000000 1.754643 0 0.000000 
245842802 1625631140.000000 1.793744 0 0.000000 
245842814 1625643148.000000 1.881720 0 0.000000 
245842826 1625655144.000000 1.935484 0 0.000000 
245842838 1625667152.000000 1.989247 0 0.000000 
245842850 1625679152.000000 1.940372 0 0.000000 
245842862 1625691172.000000 1.803519 0 0.000000 
245842874 1625703152.000000 1.671554 0 0.000000 
245842886 1625715164.000000 1.652004 0 0.000000 
245842898 1625727148.000000 1.652004 0 0.000000 
245842910 1625739132.000000 1.642229 0 0.000000 
245842922 1625751132.000000 1.676442 0 0.000000 
245842934 1625763132.000000 1.652004 0 0.000000 
245842946 1625775132.000000 1.681329 0 0.000000 
245842958 1625787132.000000 1.647116 0 0.000000 
245842970 1625799144.000000 1.779081 0 0.000000 
245842982 1625811132.000000 2.776149 0 0.000000 
245842994 1625823132.000000 1.300098 0 0.000000 
245843008 1625835116.000000 0.703812 1 0.809524 
245843018 1625847108.000000 1.251222 0 0.000000 
245843030 1625859120.000000 1.735093 0 0.000000 
245843042 1625871108.000000 1.969697 0 0.000000 
245843054 1625883108.000000 2.003910 0 0.000000 
245843066 1625895092.000000 2.038123 0 0.000000 
245843078 1625907088.000000 1.999022 0 0.000000 
245843090 1625919088.000000 1.984360 0 0.000000 
245843102 1625931096.000000 1.984360 0 0.000000 
245843114 1625943104.000000 1.984360 0 0.000000 
245843126 1625955104.000000 1.969697 0 0.000000 
245843138 1625967104.000000 1.950147 0 0.000000 
245843150 1625979104.000000 1.950147 0 0.000000 
245843162 1625991112.000000 1.974585 0 0.000000 
245843174 1626003120.000000 1.935484 0 0.000000 
245843186 1626015128.000000 1.950147 0 0.000000 
245843198 1626027128.000000 1.959922 0 0.000000 
245843210 1626039128.000000 1.935484 0 0.000000 
245843222 1626051136.000000 1.959922 0 0.000000 
245843234 1626063136.000000 1.945259 0 0.000000 
245843246 1626074116.000000 1.940372 0 0.000000 
245843258 1626087136.000000 1.940372 0 0.000000 
245843270 1626099136.000000 1.925709 0 0.000000 
245843282 1626111144.000000 1.901271 0 0.000000 
245843294 1626123132.000000 1.798631 0 0.000000 
245843306 1626135144.000000 1.715543 0 0.000000 
245843318 1626147140.000000 1.676442 0 0.000000 
245843330 1626159160.000000 1.656891 0 0.000000 
245843342 1626171164.000000 1.730205 0 0.000000 
245843354 1626183156.000000 1.730205 0 0.000000 
245843366 1626195140.000000 1.798631 0 0.000000 
245843378 1626207144.000000 1.837732 0 0.000000 
245843390 1626219156.000000 1.798631 0 0.000000 
245843402 1626231156.000000 1.818182 0 0.000000 
245843414 1626243164.000000 1.779081 0 0.000000 
245843426 1626255140.000000 1.783969 0 0.000000 
245843438 1626267132.000000 1.783969 0 0.000000 
245843450 1626279132.000000 1.779081 0 0.000000 
245843462 1626291136.000000 1.827957 0 0.000000 
245843474 1626303132.000000 1.783969 0 0.000000 
245843486 1626315124.000000 1.779081 0 0.000000 
245843498 1626327124.000000 1.774194 0 0.000000 
245843510 1626339124.000000 1.779081 0 0.000000 
245843522 1626351116.000000 1.759531 0 0.000000 
245843534 1626363120.000000 1.749756 0 0.000000 
245843546 1626375116.000000 1.759531 0 0.000000 
245843558 1626387116.000000 1.759531 0 0.000000 
245843570 1626399116.000000 1.735093 0 0.000000 
245843582 1626411120.000000 1.739980 0 0.000000 
245843594 1626423112.000000 1.730205 0 0.000000 
245843606 1626435100.000000 1.759531 0 0.000000 
245843618 1626447100.000000 1.754643 0 0.000000 
245843630 1626459100.000000 1.813294 0 0.000000 
245843642 1626471108.000000 1.915934 0 0.000000 
245843654 1626483120.000000 1.979472 0 0.000000 
245843666 1626495116.000000 2.008798 0 0.000000 
245843678 1626507104.000000 1.906158 0 0.000000 
245843690 1626519108.000000 1.783969 0 0.000000 
245843702 1626531104.000000 1.739980 0 0.000000 
245843714 1626542084.000000 1.671554 0 0.000000 
245843726 1626555108.000000 1.681329 0 0.000000 
245843738 1626567120.000000 1.705767 0 0.000000 
245843750 1626579128.000000 1.681329 0 0.000000 
245843762 1626591140.000000 1.710655 0 0.000000 
245843774 1626603132.000000 1.666667 0 0.000000 
245843786 1626615124.000000 1.598240 0 0.000000 
245843798 1626627120.000000 2.507331 0 0.000000 
245843810 1626639116.000000 1.891496 0 0.000000 
245843824 1626651116.000000 0.669599 1 0.809524 
245843834 1626663108.000000 0.884653 0 0.000000 
245843846 1626675088.000000 1.476051 0 0.000000 
245843858 1626687076.000000 1.783969 0 0.000000 
245843870 1626699072.000000 1.901271 0 0.000000 
245843882 1626711068.000000 1.935484 0 0.000000 
245843894 1626723072.000000 1.915934 0 0.000000 
245843906 1626735080.000000 1.940372 0 0.000000 
245843918 1626747080.000000 1.950147 0 0.000000 
245843930 1626759080.000000 1.935484 0 0.000000 
245843942 1626771088.000000 1.955034 0 0.000000 
245843954 1626783088.000000 1.964809 0 0.000000 
245843966 1626795088.000000 1.964809 0 0.000000 
245843978 1626807088.000000 1.989247 0 0.000000 
245843990 1626819088.000000 1.979472 0 0.000000 
245844002 1626831084.000000 2.013685 0 0.000000 
245844014 1626843088.000000 1.999022 0 0.000000 
245844026 1626855084.000000 2.013685 0 0.000000 
245844038 1626867084.000000 2.008798 0 0.000000 
245844050 1626879080.000000 1.999022 0 0.000000 
245844062 1626891080.000000 1.999022 0 0.000000 
245844074 1626903080.000000 1.984360 0 0.000000 
245844086 1626915088.000000 1.984360 0 0.000000 
245844098 1626927096.000000 1.955034 0 0.000000 
245844110 1626939096.000000 1.871945 0 0.000000 
245844122 1626951096.000000 1.818182 0 0.000000 
245844134 1626963112.000000 1.725318 0 0.000000 
245844146 1626975116.000000 1.695992 0 0.000000 
245844158 1626987128.000000 1.715543 0 0.000000 
245844170 1626999140.000000 1.705767 0 0.000000 
245844182 1627011148.000000 1.735093 0 0.000000 
245844194 1627023148.000000 1.774194 0 0.000000 
245844206 1627035156.000000 1.735093 0 0.000000 
245844218 1627047156.000000 1.735093 0 0.000000 
245844230 1627059156.000000 1.754643 0 0.000000 
245844242 1627071164.000000 1.783969 0 0.000000 
245844254 1627083156.000000 1.774194 0 0.000000 
245844266 1627095164.000000 1.779081 0 0.000000 
245844278 1627107156.000000 1.823069 0 0.000000 
245844290 1627119148.000000 1.837732 0 0.000000 
245844302 1627131156.000000 1.842620 0 0.000000 
245844314 1627143156.000000 1.832845 0 0.000000 
245844326 1627155156.000000 1.818182 0 0.000000 
245844338 1627167164.000000 1.842620 0 0.000000 
245844350 1627179164.000000 1.842620 0 0.000000 
245844362 1627191152.000000 1.867058 0 0.000000 
245844374 1627203140.000000 1.837732 0 0.000000 
245844386 1627215148.000000 1.827957 0 0.000000 
245844398 1627227156.000000 1.847507 0 0.000000 
245844410 1627239148.000000 1.837732 0 0.000000 
245844422 1627251156.000000 1.871945 0 0.000000 
245844434 1627263168.000000 1.979472 0 0.000000 
245844446 1627275156.000000 2.028348 0 0.000000 
245844458 1627287148.000000 2.086999 0 0.000000 
245844470 1627299140.000000 2.067449 0 0.000000 
245844482 1627311140.000000 1.940372 0 0.000000 
245844494 1627323132.000000 1.823069 0 0.000000 
245844506 1627335132.000000 1.783969 0 0.000000 
245844518 1627347116.000000 1.759531 0 0.000000 
245844530 1627359112.000000 1.739980 0 0.000000 
245844542 1627371108.000000 1.759531 0 0.000000 
245844554 1627383108.000000 1.759531 0 0.000000 
245844566 1627395116.000000 1.710655 0 0.000000 
245844578 1627407108.000000 1.695992 0 0.000000 
245844590 1627419124.000000 1.744868 0 0.000000 
245844602 1627431100.000000 2.585533 0 0.000000 
245844614 1627443104.000000 1.485826 0 0.000000 
245844628 1627455100.000000 0.738025 1 0.797619 
245844638 1627467088.000000 1.143695 0 0.000000 
245844650 1627479092.000000 1.617791 0 0.000000 
245844662 1627491096.000000 1.842620 0 0.000000 
245844674 1627503084.000000 1.886608 0 0.000000 
245844686 1627515084.000000 1.901271 0 0.000000 
245844698 1627527076.000000 1.915934 0 0.000000 
245844710 1627539088.000000 1.896383 0 0.000000 
245844722 1627551088.000000 1.896383 0 0.000000 
245844734 1627563084.000000 1.876833 0 0.000000 
245844746 1627575088.000000 1.847507 0 0.000000 
245844758 1627587088.000000 1.847507 0 0.000000 
245844770 1627599088.000000 1.847507 0 0.000000 
245844782 1627611084.000000 1.881720 0 0.000000 
245844794 1627623088.000000 1.886608 0 0.000000 
245844806 1627635080.000000 1.896383 0 0.000000 
245844818 1627647088.000000 1.920821 0 0.000000 
245844830 1627659076.000000 1.911046 0 0.000000 
245844842 1627671088.000000 1.945259 0 0.000000 
245844854 1627683088.000000 1.925709 0 0.000000 
245844866 1627695088.000000 1.915934 0 0.000000 
245844878 1627707104.000000 1.930596 0 0.000000 
245844890 1627719104.000000 1.896383 0 0.000000 
245844902 1627731112.000000 1.871945 0 0.000000 
245844914 1627743108.000000 1.793744 0 0.000000 
245844926 1627755124.000000 1.730205 0 0.000000 
245844938 1627767108.000000 1.705767 0 0.000000 
245844950 1627779128.000000 1.652004 0 0.000000 
245844962 1627791104.000000 1.700880 0 0.000000 
245844974 1627803096.000000 1.715543 0 0.000000 
245844986 1627815104.000000 1.715543 0 0.000000 
245844998 1627827104.000000 1.705767 0 0.000000 
245845010 1627839116.000000 1.739980 0 0.000000 
245845022 1627851116.000000 1.715543 0 0.000000 
245845034 1627863124.000000 1.686217 0 0.000000 
245845046 1627875124.000000 1.691105 0 0.000000 
245845058 1627887116.000000 1.700880 0 0.000000 
245845070 1627899100.000000 1.705767 0 0.000000 
245845082 1627911116.000000 1.725318 0 0.000000 
245845094 1627923124.000000 1.739980 0 0.000000 
245845106 1627935124.000000 1.739980 0 0.000000 
245845118 1627947124.000000 1.744868 0 0.000000 
245845130 1627959100.000000 1.735093 0 0.000000 
245845142 1627971100.000000 1.754643 0 0.000000 
245845154 1627983104.000000 1.730205 0 0.000000 
245845166 1627995104.000000 1.715543 0 0.000000 
245845178 1628007120.000000 1.749756 0 0.000000 
245845190 1628019120.000000 1.749756 0 0.000000 
245845202 1628031116.000000 1.906158 0 0.000000 
245845214 1628043104.000000 1.945259 0 0.000000 
245845226 1628055100.000000 2.008798 0 0.000000 
245845238 1628067092.000000 1.969697 0 0.000000 
245845250 1628079092.000000 1.793744 0 0.000000 
245845262 1628091104.000000 1.700880 0 0.000000 
245845274 1628103092.000000 1.666667 0 0.000000 
245845286 1628115096.000000 1.671554 0 0.000000 
245845298 1628127100.000000 1.661779 0 0.000000 
245845310 1628139100.000000 1.666667 0 0.000000 
245845322 1628151100.000000 1.656891 0 0.000000 
245845334 1628163124.000000 1.652004 0 0.000000 
245845346 1628175092.000000 1.598240 0 0.000000 
245845358 1628187084.000000 1.798631 0 0.000000 
245845370 1628199092.000000 2.580645 0 0.000000 
245845383 1628211076.000000 1.182796 1 0.750000 
245845394 1628223076.000000 0.752688 0 0.000000 
245845406 1628235068.000000 1.202346 0 0.000000 
245845418 1628247076.000000 1.652004 0 0.000000 
245845430 1628259052.000000 1.832845 0 0.000000 
245845442 1628271056.000000 1.915934 0 0.000000 
245845454 1628283064.000000 1.950147 0 0.000000 
245845466 1628295060.000000 1.911046 0 0.000000 
245845478 1628307064.000000 1.925709 0 0.000000 
245845490 1628319064.000000 1.906158 0 0.000000 
245845502 1628331072.000000 1.906158 0 0.000000 
245845514 1628343060.000000 1.891496 0 0.000000 
245845526 1628355060.000000 1.891496 0 0.000000 
245845538 1628367060.000000 1.911046 0 0.000000 
245845550 1628379064.000000 1.896383 0 0.000000 
245845562 1628391064.000000 1.915934 0 0.000000 
245845574 1628403072.000000 1.930596 0 0.000000 
245845586 1628415072.000000 1.969697 0 0.000000 
245845598 1628427068.000000 2.043011 0 0.000000 
245845610 1628439060.000000 2.033236 0 0.000000 
245845622 1628451064.000000 1.945259 0 0.000000 
245845634 1628463064.000000 1.974585 0 0.000000 
245845646 1628475072.000000 1.930596 0 0.000000 
245845658 1628487072.000000 1.969697 0 0.000000 
245845670 1628499072.000000 1.886608 0 0.000000 
245845682 1628511064.000000 1.823069 0 0.000000 
245845694 1628523060.000000 1.832845 0 0.000000 
245845706 1628535060.000000 1.754643 0 0.000000 
245845718 1628547064.000000 1.720430 0 0.000000 
245845730 1628559064.000000 1.730205 0 0.000000 
245845742 1628571060.000000 1.759531 0 0.000000 
245845754 1628583064.000000 1.744868 0 0.000000 
245845766 1628595036.000000 1.769306 0 0.000000 
245845778 1628607040.000000 1.857283 0 0.000000 
245845790 1628619048.000000 1.686217 0 0.000000 
245845802 1628631060.000000 1.730205 0 0.000000 
245845814 1628643044.000000 1.774194 0 0.000000 
245845826 1628655052.000000 1.754643 0 0.000000 
245845838 1628667052.000000 1.911046 0 0.000000 
245845850 1628679056.000000 1.857283 0 0.000000 
245845862 1628691064.000000 1.837732 0 0.000000 
245845874 1628703072.000000 1.700880 0 0.000000 
245845886 1628715072.000000 1.744868 0 0.000000 
245845898 1628727056.000000 1.862170 0 0.000000 
245845910 1628739052.000000 1.911046 0 0.000000 
245845922 1628751056.000000 1.857283 0 0.000000 
245845934 1628763060.000000 1.764418 0 0.000000 
245845946 1628775072.000000 1.715543 0 0.000000 
245845958 1628787080.000000 1.739980 0 0.000000 
245845970 1628799076.000000 1.759531 0 0.000000 
245845982 1628811072.000000 1.867058 0 0.000000 
245845994 1628823072.000000 1.935484 0 0.000000 
245846006 1628835080.000000 1.994135 0 0.000000 
245846018 1628847080.000000 1.989247 0 0.000000 
245846030 1628859076.000000 1.798631 0 0.000000 
245846042 1628871080.000000 1.686217 0 0.000000 
245846054 1628883084.000000 1.652004 0 0.000000 
245846066 1628895068.000000 1.661779 0 0.000000 
245846078 1628907080.000000 1.671554 0 0.000000 
245846090 1628919088.000000 1.671554 0 0.000000 
245846102 1628931108.000000 1.700880 0 0.000000 
245846114 1628943084.000000 1.676442 0 0.000000 
245846126 1628955084.000000 1.637341 0 0.000000 
245846138 1628967100.000000 1.901271 0 0.000000 
245846150 1628979092.000000 2.678397 0 0.000000 
245846162 1628991084.000000 1.182796 0 0.000000 
245846175 1629003084.000000 0.801564 1 0.785714 
245846186 1629015076.000000 1.300098 0 0.000000 
245846198 1629027052.000000 1.754643 0 0.000000 
245846210 1629039052.000000 1.930596 0 0.000000 
245846222 1629051052.000000 1.930596 0 0.000000 
245846234 1629063056.000000 1.940372 0 0.000000 
245846246 1629075056.000000 1.940372 0 0.000000 
245846258 1629087056.000000 1.950147 0 0.000000 
245846270 1629099064.000000 1.935484 0 0.000000 
245846282 1629111072.000000 1.945259 0 0.000000 
245846294 1629123072.000000 1.920821 0 0.000000 
245846306 1629135064.000000 1.920821 0 0.000000 
245846318 1629147056.000000 1.945259 0 0.000000 
245846330 1629159056.000000 1.955034 0 0.000000 
245846342 1629171056.000000 1.979472 0 0.000000 
245846354 1629183064.000000 1.945259 0 0.000000 
245846366 1629195064.000000 1.950147 0 0.000000 
245846378 1629207064.000000 1.974585 0 0.000000 
245846390 1629219072.000000 1.906158 0 0.000000 
245846402 1629231080.000000 1.955034 0 0.000000 
245846414 1629243080.000000 1.940372 0 0.000000 
245846426 1629255080.000000 1.950147 0 0.000000 
245846438 1629267096.000000 1.945259 0 0.000000 
245846450 1629279076.000000 1.823069 0 0.000000 
245846462 1629291076.000000 1.720430 0 0.000000 
245846474 1629303076.000000 1.695992 0 0.000000 
245846486 1629315100.000000 1.652004 0 0.000000 
245846498 1629327084.000000 1.622678 0 0.000000 
245846510 1629339092.000000 1.617791 0 0.000000 
245846522 1629351092.000000 1.656891 0 0.000000 
245846534 1629363092.000000 1.715543 0 0.000000 
245846546 1629375100.000000 1.739980 0 0.000000 
245846558 1629387100.000000 1.764418 0 0.000000 
245846570 1629399108.000000 1.710655 0 0.000000 
245846582 1629411108.000000 1.788856 0 0.000000 
245846594 1629423116.000000 1.725318 0 0.000000 
245846606 1629435128.000000 1.842620 0 0.000000 
245846618 1629447124.000000 1.808407 0 0.000000 
245846630 1629459108.000000 1.759531 0 0.000000 
245846642 1629471112.000000 1.749756 0 0.000000 
245846654 1629483108.000000 1.788856 0 0.000000 
245846666 1629495100.000000 1.827957 0 0.000000 
245846678 1629507100.000000 1.803519 0 0.000000 
245846690 1629519092.000000 1.691105 0 0.000000 
245846702 1629531092.000000 1.793744 0 0.000000 
245846714 1629543100.000000 1.764418 0 0.000000 
245846726 1629555108.000000 1.661779 0 0.000000 
245846738 1629567116.000000 1.803519 0 0.000000 
245846750 1629579108.000000 1.700880 0 0.000000 
245846762 1629591100.000000 1.715543 0 0.000000 
245846774 1629603108.000000 1.700880 0 0.000000 
245846786 1629615116.000000 1.686217 0 0.000000 
245846798 1629627116.000000 1.700880 0 0.000000 
245846810 1629639108.000000 1.852395 0 0.000000 
245846822 1629651124.000000 1.964809 0 0.000000 
245846834 1629663116.000000 2.008798 0 0.000000 
245846846 1629675108.000000 1.969697 0 0.000000 
245846858 1629687108.000000 1.808407 0 0.000000 
245846870 1629699108.000000 1.686217 0 0.000000 
245846882 1629711108.000000 1.725318 0 0.000000 
245846894 1629723120.000000 1.754643 0 0.000000 
245846906 1629735120.000000 1.754643 0 0.000000 
245846918 1629747116.000000 1.788856 0 0.000000 
245846930 1629759116.000000 1.730205 0 0.000000 
245846942 1629771116.000000 1.774194 0 0.000000 
245846954 1629783120.000000 1.686217 0 0.000000 
245846966 1629795116.000000 2.546432 0 0.000000 
245846978 1629807116.000000 2.223851 0 0.000000 
245846991 1629819116.000000 0.830890 1 0.809524 
245847002 1629831112.000000 1.026393 0 0.000000 
245847014 1629843116.000000 1.578690 0 0.000000 
245847026 1629855116.000000 1.847507 0 0.000000 
245847038 1629867116.000000 1.920821 0 0.000000 
245847050 1629879108.000000 1.955034 0 0.000000 
245847062 1629891108.000000 2.028348 0 0.000000 
245847074 1629903104.000000 1.979472 0 0.000000 
245847086 1629915108.000000 1.955034 0 0.000000 
245847098 1629927108.000000 1.945259 0 0.000000 
245847110 1629939108.000000 1.876833 0 0.000000 
245847122 1629951108.000000 1.945259 0 0.000000 
245847134 1629963108.000000 1.950147 0 0.000000 
245847146 1629975112.000000 1.979472 0 0.000000 
245847158 1629987108.000000 2.018573 0 0.000000 
245847170 1629999116.000000 1.935484 0 0.000000 
245847182 1630011116.000000 1.964809 0 0.000000 
245847194 1630023116.000000 1.945259 0 0.000000 
245847206 1630035116.000000 1.945259 0 0.000000 
245847218 1630047116.000000 1.964809 0 0.000000 
245847230 1630059116.000000 1.955034 0 0.000000 
245847242 1630071112.000000 2.028348 0 0.000000 
245847254 1630083116.000000 1.989247 0 0.000000 
245847266 1630095112.000000 1.906158 0 0.000000 
245847278 1630107108.000000 1.837732 0 0.000000 
245847290 1630119112.000000 1.818182 0 0.000000 
245847302 1630131112.000000 1.705767 0 0.000000 
245847314 1630143116.000000 1.666667 0 0.000000 
245847326 1630155112.000000 1.656891 0 0.000000 
245847338 1630167120.000000 1.681329 0 0.000000 
245847350 1630179112.000000 1.695992 0 0.000000 
245847362 1630191112.000000 1.725318 0 0.000000 
245847374 1630203116.000000 1.774194 0 0.000000 
245847386 1630215116.000000 1.769306 0 0.000000 
245847398 1630227112.000000 1.754643 0 0.000000 
245847410 1630239108.000000 1.700880 0 0.000000 
245847422 1630251108.000000 1.774194 0 0.000000 
245847434 1630263112.000000 1.779081 0 0.000000 
245847446 1630275108.000000 1.725318 0 0.000000 
245847458 1630287116.000000 1.769306 0 0.000000 
245847470 1630299112.000000 1.720430 0 0.000000 
245847482 1630311108.000000 1.759531 0 0.000000 
245847494 1630323108.000000 1.739980 0 0.000000 
245847506 1630335108.000000 1.779081 0 0.000000 
245847518 1630347100.000000 1.813294 0 0.000000 
245847530 1630359112.000000 1.749756 0 0.000000 
245847542 1630371112.000000 1.744868 0 0.000000 
245847554 1630383100.000000 1.764418 0 0.000000 
245847566 1630395108.000000 1.774194 0 0.000000 
245847578 1630407108.000000 1.764418 0 0.000000 
245847590 1630419108.000000 1.798631 0 0.000000 
245847602 1630431108.000000 1.798631 0 0.000000 
245847614 1630443108.000000 1.764418 0 0.000000 
245847626 1630455108.000000 1.764418 0 0.000000 
245847638 1630467116.000000 1.847507 0 0.000000 
245847650 1630479112.000000 1.739980 0 0.000000 
245847662 1630491108.000000 1.827957 0 0.000000 
245847674 1630503096.000000 2.003910 0 0.000000 
245847686 1630515076.000000 2.052786 0 0.000000 
245847698 1630527076.000000 1.955034 0 0.000000 
245847710 1630539076.000000 1.798631 0 0.000000 
245847722 1630551092.000000 1.739980 0 0.000000 
245847734 1630563084.000000 1.705767 0 0.000000 
245847746 1630575084.000000 1.652004 0 0.000000 
245847758 1630587076.000000 1.700880 0 0.000000 
245847770 1630599068.000000 1.710655 0 0.000000 
245847782 1630611068.000000 1.725318 0 0.000000 
245847794 1630623084.000000 1.759531 0 0.000000 
245847806 1630635084.000000 1.612903 0 0.000000 
245847818 1630647092.000000 2.434018 0 0.000000 
245847830 1630659092.000000 2.189638 0 0.000000 
245847843 1630671092.000000 0.855328 1 0.845238 
245847854 1630683084.000000 0.997067 0 0.000000 
245847866 1630695076.000000 1.505376 0 0.000000 
245847878 1630707076.000000 1.857283 0 0.000000 
245847890 1630719088.000000 1.935484 0 0.000000 
245847902 1630731084.000000 1.950147 0 0.000000 
245847914 1630743096.000000 1.984360 0 0.000000 
245847926 1630755100.000000 1.930596 0 0.000000 
245847938 1630767100.000000 1.994135 0 0.000000 
245847950 1630779100.000000 1.906158 0 0.000000 
245847962 1630791104.000000 1.886608 0 0.000000 
245847974 1630803096.000000 1.964809 0 0.000000 
245847986 1630815092.000000 1.935484 0 0.000000 
245847998 1630827100.000000 1.911046 0 0.000000 
245848010 1630839100.000000 1.930596 0 0.000000 
245848022 1630851104.000000 1.950147 0 0.000000 
245848034 1630863104.000000 1.950147 0 0.000000 
245848046 1630875104.000000 1.925709 0 0.000000 
245848058 1630887100.000000 1.964809 0 0.000000 
245848070 1630899092.000000 1.940372 0 0.000000 
245848082 1630911096.000000 1.974585 0 0.000000 
245848094 1630923092.000000 2.018573 0 0.000000 
245848106 1630935096.000000 1.920821 0 0.000000 
245848118 1630947084.000000 1.945259 0 0.000000 
245848130 1630959084.000000 1.832845 0 0.000000 
245848142 1630971092.000000 1.769306 0 0.000000 
245848154 1630983084.000000 1.730205 0 0.000000 
245848166 1630995076.000000 1.666667 0 0.000000 
245848178 1631007068.000000 1.720430 0 0.000000 
245848190 1631019068.000000 1.666667 0 0.000000 
245848202 1631031060.000000 1.695992 0 0.000000 
245848214 1631043068.000000 1.769306 0 0.000000 
245848226 1631055068.000000 1.676442 0 0.000000 
245848238 1631067076.000000 1.739980 0 0.000000 
245848250 1631079076.000000 1.764418 0 0.000000 
245848262 1631091084.000000 1.730205 0 0.000000 
245848274 1631103084.000000 1.735093 0 0.000000 
245848286 1631115076.000000 1.764418 0 0.000000 
245848298 1631127084.000000 1.764418 0 0.000000 
245848310 1631139092.000000 1.779081 0 0.000000 
245848322 1631151092.000000 1.764418 0 0.000000 
245848334 1631163092.000000 1.769306 0 0.000000 
245848346 1631175092.000000 1.769306 0 0.000000 
245848358 1631187092.000000 1.764418 0 0.000000 
245848370 1631199092.000000 1.720430 0 0.000000 
245848382 1631211092.000000 1.774194 0 0.000000 
245848394 1631223092.000000 1.793744 0 0.000000 
245848406 1631235100.000000 1.730205 0 0.000000 
245848418 1631247092.000000 1.764418 0 0.000000 
245848430 1631259088.000000 1.764418 0 0.000000 
245848442 1631271088.000000 1.769306 0 0.000000 
245848454 1631283084.000000 1.813294 0 0.000000 
245848466 1631295092.000000 1.769306 0 0.000000 
245848478 1631307088.000000 1.764418 0 0.000000 
245848490 1631319096.000000 1.754643 0 0.000000 
245848502 1631331088.000000 1.788856 0 0.000000 
245848514 1631343088.000000 1.827957 0 0.000000 
245848526 1631355084.000000 1.783969 0 0.000000 
245848538 1631367076.000000 1.832845 0 0.000000 
245848550 1631379080.000000 1.959922 0 0.000000 
245848562 1631391076.000000 2.033236 0 0.000000 
245848574 1631403076.000000 2.013685 0 0.000000 
245848586 1631415076.000000 1.871945 0 0.000000 
245848598 1631427084.000000 1.725318 0 0.000000 
245848610 1631439096.000000 1.700880 0 0.000000 
245848622 1631451088.000000 1.676442 0 0.000000 
245848634 1631463088.000000 1.720430 0 0.000000 
