timestamp,ecg_measurement
2.937208512000000000e+09,1.436950111300000055e+00
2.937212516000000000e+09,1.314760565700000106e+00
2.937216520000000000e+09,1.339198470099999927e+00
2.937220516000000000e+09,1.446725368400000100e+00
2.937224524000000000e+09,1.422287368699999943e+00
2.937228532000000000e+09,1.260997056899999968e+00
2.937232520000000000e+09,1.138807415899999897e+00
2.937236520000000000e+09,1.153470158500000009e+00
2.937240516000000000e+09,1.270772218699999900e+00
2.937244524000000000e+09,1.280547380400000046e+00
2.937248512000000000e+09,1.143694996800000085e+00
2.937252512000000000e+09,1.026392936699999980e+00
2.937256516000000000e+09,1.060606002799999947e+00
2.937260488000000000e+09,1.173020482000000086e+00
2.937264484000000000e+09,1.177908062900000052e+00
2.937268472000000000e+09,1.041055679300000092e+00
2.937272468000000000e+09,9.188660620999999917e-01
2.937276456000000000e+09,9.481915472999999928e-01
2.937280448000000000e+09,1.060606002799999947e+00
2.937284424000000000e+09,1.065493702799999998e+00
2.937288420000000000e+09,9.237536429999999577e-01
2.937292412000000000e+09,8.113391876000000114e-01
2.937296412000000000e+09,8.357770919000000465e-01
2.937300404000000000e+09,9.579667091000000356e-01
2.937304396000000000e+09,9.726295471000000470e-01
2.937308396000000000e+09,8.406646728000000124e-01
2.937312380000000000e+09,7.429130077000000165e-01
2.937316368000000000e+09,7.869012831999999680e-01
2.937320356000000000e+09,9.237536429999999577e-01
2.937324356000000000e+09,9.677418707999999592e-01
2.937328348000000000e+09,8.699902534000000243e-01
2.937332332000000000e+09,7.869012831999999680e-01
2.937336316000000000e+09,8.455523489999999809e-01
2.937340300000000000e+09,9.970674513999999711e-01
2.937344284000000000e+09,1.045943260100000050e+00
2.937348268000000000e+09,9.530791281999999587e-01
2.937352248000000000e+09,8.651026724999999473e-01
2.937356232000000000e+09,9.384163855999999582e-01
2.937360232000000000e+09,1.089931602400000088e+00
2.937364224000000000e+09,1.153470158500000009e+00
2.937368224000000000e+09,1.070381283699999964e+00
2.937372220000000000e+09,9.921798706000000134e-01
2.937376208000000000e+09,1.065493702799999998e+00
2.937380200000000000e+09,1.236559152599999933e+00
2.937384212000000000e+09,1.324535727500000037e+00
2.937388228000000000e+09,1.265884637799999934e+00
2.937392216000000000e+09,1.221896409900000036e+00
2.937396212000000000e+09,1.319648146600000072e+00
2.937400220000000000e+09,1.500488757999999923e+00
2.937404204000000000e+09,1.583577728200000090e+00
2.937408212000000000e+09,1.505376338900000110e+00
2.937412212000000000e+09,1.456500530200000032e+00
2.937416204000000000e+09,1.534701824099999889e+00
2.937420204000000000e+09,1.705767393099999918e+00
2.937424204000000000e+09,1.769305944400000108e+00
2.937428204000000000e+09,1.666666602999999913e+00
2.937432204000000000e+09,1.568914985599999978e+00
2.937436212000000000e+09,1.637341117799999912e+00
2.937440212000000000e+09,1.788856267899999963e+00
2.937444220000000000e+09,1.827957057899999960e+00
2.937448220000000000e+09,1.720430135700000029e+00
2.937452220000000000e+09,1.642228698700000100e+00
2.937456220000000000e+09,1.715542554800000064e+00
2.937460228000000000e+09,1.886608028399999970e+00
2.937464220000000000e+09,1.930596256200000083e+00
2.937468220000000000e+09,1.813294315300000070e+00
2.937472228000000000e+09,1.730205297399999953e+00
2.937476228000000000e+09,1.788856267899999963e+00
2.937480236000000000e+09,1.940371513299999906e+00
2.937484236000000000e+09,1.969696998499999907e+00
2.937488236000000000e+09,1.837732219600000105e+00
2.937492244000000000e+09,1.730205297399999953e+00
2.937496236000000000e+09,1.783968686999999997e+00
2.937500236000000000e+09,1.930596256200000083e+00
2.937504236000000000e+09,1.945259094200000094e+00
2.937508236000000000e+09,1.793743848799999929e+00
2.937512240000000000e+09,1.691104650400000020e+00
2.937516240000000000e+09,1.749755620900000030e+00
2.937520236000000000e+09,1.955034255900000018e+00
2.937524240000000000e+09,2.091886520300000107e+00
2.937528228000000000e+09,2.160312890999999791e+00
2.937532228000000000e+09,2.316715478799999950e+00
2.937536236000000000e+09,2.658846616699999998e+00
2.937540236000000000e+09,3.069403648299999787e+00
2.937544228000000000e+09,3.225806474600000140e+00
2.937548228000000000e+09,3.000977516099999853e+00
2.937552220000000000e+09,2.609970569600000179e+00
2.937556212000000000e+09,2.218963861399999793e+00
2.937560220000000000e+09,1.847507381400000037e+00
2.937564216000000000e+09,1.480938434600000075e+00
2.937568212000000000e+09,1.124144673300000008e+00
2.937572220000000000e+09,9.139784812000000258e-01
2.937576220000000000e+09,9.628542900000000015e-01
2.937580208000000000e+09,1.168132901099999899e+00
2.937584220000000000e+09,1.304985284800000089e+00
2.937588220000000000e+09,1.285434961300000012e+00
2.937592228000000000e+09,1.270772218699999900e+00
2.937596236000000000e+09,1.383186702699999993e+00
2.937600236000000000e+09,1.568914985599999978e+00
2.937604236000000000e+09,1.632453536899999946e+00
2.937608244000000000e+09,1.534701824099999889e+00
2.937612236000000000e+09,1.446725368400000100e+00
2.937616240000000000e+09,1.524926662399999966e+00
2.937620240000000000e+09,1.681329345700000033e+00
2.937624248000000000e+09,1.715542554800000064e+00
2.937628248000000000e+09,1.608015632599999911e+00
2.937632240000000000e+09,1.515151500700000042e+00
2.937636240000000000e+09,1.588465309100000056e+00
2.937640236000000000e+09,1.739980459200000107e+00
2.937644236000000000e+09,1.774193525300000074e+00
2.937648236000000000e+09,1.647116279600000066e+00
2.937652244000000000e+09,1.549364566800000009e+00
2.937656240000000000e+09,1.627565956099999989e+00
2.937660240000000000e+09,1.779081106100000031e+00
2.937664236000000000e+09,1.823069476999999994e+00
2.937668228000000000e+09,1.715542554800000064e+00
2.937672236000000000e+09,1.627565956099999989e+00
2.937676240000000000e+09,1.720430135700000029e+00
2.937680236000000000e+09,1.871945285700000072e+00
2.937684236000000000e+09,1.911045932700000005e+00
2.937688240000000000e+09,1.783968686999999997e+00
2.937692228000000000e+09,1.681329345700000033e+00
2.937696228000000000e+09,1.735092878299999919e+00
2.937700228000000000e+09,1.881720447500000004e+00
2.937704228000000000e+09,1.901270771000000082e+00
2.937708220000000000e+09,1.744868040000000065e+00
2.937712204000000000e+09,1.612903213500000099e+00
2.937716212000000000e+09,1.637341117799999912e+00
2.937720220000000000e+09,1.725317716499999987e+00
2.937724228000000000e+09,1.681329345700000033e+00
2.937728236000000000e+09,1.432062530500000097e+00
2.937732224000000000e+09,1.182795639000000065e+00
2.937736224000000000e+09,1.021505355800000014e+00
2.937740212000000000e+09,9.042033194999999912e-01
2.937744188000000000e+09,6.940371512999999881e-01
2.937748180000000000e+09,4.594330309999999917e-01
2.937752160000000000e+09,2.834799574999999905e-01
2.937756156000000000e+09,1.808406734000000127e-01
2.937760148000000000e+09,1.026392936000000006e-01
2.937764140000000000e+09,6.353860849999999616e-02
2.937768124000000000e+09,3.421309940000000216e-02
2.937772108000000000e+09,1.466275589999999941e-02
2.937776100000000000e+09,4.887585100000000314e-03
2.937780084000000000e+09,4.887585100000000314e-03
2.937784068000000000e+09,9.775170300000000229e-03
2.937788020000000000e+09,0.000000000000000000e+00
2.937791956000000000e+09,9.775170300000000229e-03
2.937795908000000000e+09,0.000000000000000000e+00
2.937799812000000000e+09,0.000000000000000000e+00
2.937803708000000000e+09,0.000000000000000000e+00
2.937807612000000000e+09,0.000000000000000000e+00
2.937811516000000000e+09,0.000000000000000000e+00
2.937815412000000000e+09,0.000000000000000000e+00
2.937819300000000000e+09,0.000000000000000000e+00
2.937823188000000000e+09,0.000000000000000000e+00
2.937827084000000000e+09,0.000000000000000000e+00
2.937830988000000000e+09,0.000000000000000000e+00
2.937834892000000000e+09,0.000000000000000000e+00
2.937838796000000000e+09,0.000000000000000000e+00
2.937842700000000000e+09,0.000000000000000000e+00
2.937846588000000000e+09,0.000000000000000000e+00
2.937850492000000000e+09,0.000000000000000000e+00
2.937854388000000000e+09,0.000000000000000000e+00
2.937858284000000000e+09,0.000000000000000000e+00
2.937862164000000000e+09,0.000000000000000000e+00
2.937866052000000000e+09,0.000000000000000000e+00
2.937869956000000000e+09,0.000000000000000000e+00
2.937873860000000000e+09,0.000000000000000000e+00
2.937877764000000000e+09,0.000000000000000000e+00
2.937881652000000000e+09,0.000000000000000000e+00
2.937885548000000000e+09,0.000000000000000000e+00
2.937889452000000000e+09,0.000000000000000000e+00
2.937893348000000000e+09,0.000000000000000000e+00
2.937897268000000000e+09,4.887585100000000314e-03
2.937901212000000000e+09,0.000000000000000000e+00
2.937905100000000000e+09,0.000000000000000000e+00
2.937908996000000000e+09,0.000000000000000000e+00
2.937912900000000000e+09,0.000000000000000000e+00
2.937916804000000000e+09,0.000000000000000000e+00
2.937920708000000000e+09,0.000000000000000000e+00
2.937924596000000000e+09,0.000000000000000000e+00
2.937928500000000000e+09,0.000000000000000000e+00
2.937932396000000000e+09,0.000000000000000000e+00
2.937936316000000000e+09,1.955034159999999993e-02
2.937940308000000000e+09,3.421309940000000216e-02
2.937944292000000000e+09,2.932551190000000016e-02
2.937948284000000000e+09,1.466275589999999941e-02
2.937952272000000000e+09,9.775170300000000229e-03
2.937956244000000000e+09,4.887585629999999931e-02
2.937960232000000000e+09,1.417399786999999911e-01
2.937964236000000000e+09,1.857282543000000063e-01
2.937968240000000000e+09,1.319648026999999946e-01
2.937972236000000000e+09,9.286412230000000434e-02
2.937976232000000000e+09,1.564027309000000088e-01
2.937980224000000000e+09,2.883675384000000119e-01
2.937984220000000000e+09,3.665689228999999827e-01
2.937988204000000000e+09,3.274682044000000181e-01
2.937992176000000000e+09,2.834799574999999905e-01
2.937996172000000000e+09,3.519061565000000114e-01
2.938000164000000000e+09,4.887585638999999982e-01
2.938004156000000000e+09,5.816226481999999809e-01
2.938008144000000000e+09,5.474095821000000139e-01
2.938012136000000000e+09,5.083088874000000201e-01
2.938016116000000000e+09,5.620723247000000145e-01
2.938020108000000000e+09,7.038123130000000227e-01
2.938024108000000000e+09,7.869012831999999680e-01
2.938028092000000000e+09,7.722384929000000175e-01
2.938032076000000000e+09,6.940371512999999881e-01
2.938036068000000000e+09,7.478005885999999824e-01
2.938040052000000000e+09,8.797654150999999478e-01
2.938044044000000000e+09,9.579667091000000356e-01
2.938048036000000000e+09,9.139784812000000258e-01
2.938052028000000000e+09,8.651026724999999473e-01
2.938056020000000000e+09,9.237536429999999577e-01
2.938060008000000000e+09,1.060606002799999947e+00
2.938063984000000000e+09,1.158357739399999975e+00
2.938067984000000000e+09,1.099706764200000020e+00
2.938071968000000000e+09,1.031280517499999938e+00
2.938075960000000000e+09,1.065493702799999998e+00
2.938079956000000000e+09,1.197458505600000001e+00
2.938083956000000000e+09,1.285434961300000012e+00
2.938087964000000000e+09,1.236559152599999933e+00
2.938091968000000000e+09,1.168132901099999899e+00
2.938095972000000000e+09,1.212121248199999890e+00
2.938099980000000000e+09,1.329423308299999995e+00
2.938103988000000000e+09,1.388074283499999950e+00
2.938107980000000000e+09,1.309872865600000047e+00
2.938111972000000000e+09,1.207233667299999924e+00
2.938115972000000000e+09,1.207233667299999924e+00
2.938119972000000000e+09,1.309872865600000047e+00
2.938123972000000000e+09,1.329423308299999995e+00
2.938127972000000000e+09,1.217008829100000078e+00
2.938131964000000000e+09,1.085044021599999908e+00
2.938135952000000000e+09,1.075268864599999930e+00
2.938139952000000000e+09,1.168132901099999899e+00
2.938143964000000000e+09,1.207233667299999924e+00
2.938147964000000000e+09,1.119257092400000042e+00
2.938151960000000000e+09,1.016617774900000049e+00
2.938155952000000000e+09,1.036168098399999904e+00
2.938159944000000000e+09,1.148582577700000051e+00
2.938163948000000000e+09,1.202346086499999966e+00
2.938167944000000000e+09,1.129032254199999974e+00
2.938171944000000000e+09,1.031280517499999938e+00
2.938175936000000000e+09,1.060606002799999947e+00
2.938179912000000000e+09,1.158357739399999975e+00
2.938183924000000000e+09,1.231671571699999967e+00
2.938187936000000000e+09,1.133919834999999932e+00
2.938191928000000000e+09,1.036168098399999904e+00
2.938195912000000000e+09,1.050830841000000015e+00
2.938199900000000000e+09,1.177908062900000052e+00
2.938203892000000000e+09,1.226783990800000002e+00
2.938207884000000000e+09,1.153470158500000009e+00
2.938211880000000000e+09,1.041055679300000092e+00
2.938215872000000000e+09,1.094819183300000054e+00
2.938219876000000000e+09,1.290322542099999970e+00
2.938223876000000000e+09,1.500488757999999923e+00
2.938227872000000000e+09,1.681329345700000033e+00
2.938231872000000000e+09,1.901270771000000082e+00
2.938235860000000000e+09,2.238514184900000092e+00
2.938239868000000000e+09,2.629521131500000219e+00
2.938243884000000000e+09,2.790811300200000122e+00
2.938247876000000000e+09,2.575757503500000212e+00
2.938251876000000000e+09,2.155425310100000047e+00
2.938255884000000000e+09,1.681329345700000033e+00
2.938259892000000000e+09,1.295210122999999935e+00
2.938263888000000000e+09,1.001955032299999937e+00
2.938267884000000000e+09,7.575757503000000170e-01
2.938271876000000000e+09,6.109481811000000429e-01
2.938275864000000000e+09,6.500488280999999757e-01
2.938279844000000000e+09,8.260019302000000119e-01
2.938283828000000000e+09,9.824047087999999706e-01
2.938287808000000000e+09,1.006842613199999903e+00
2.938291812000000000e+09,9.726295471000000470e-01
2.938295808000000000e+09,1.036168098399999904e+00
2.938299804000000000e+09,1.177908062900000052e+00
2.938303796000000000e+09,1.256109476000000003e+00
2.938307796000000000e+09,1.212121248199999890e+00
2.938311800000000000e+09,1.129032254199999974e+00
2.938315808000000000e+09,1.177908062900000052e+00
2.938319796000000000e+09,1.290322542099999970e+00
2.938323796000000000e+09,1.353861212700000038e+00
2.938327812000000000e+09,1.280547380400000046e+00
2.938331808000000000e+09,1.187683343800000069e+00
2.938335820000000000e+09,1.217008829100000078e+00
2.938339812000000000e+09,1.344086050900000107e+00
2.938343804000000000e+09,1.407624626100000054e+00
2.938347812000000000e+09,1.329423308299999995e+00
2.938351820000000000e+09,1.236559152599999933e+00
2.938355828000000000e+09,1.265884637799999934e+00
2.938359836000000000e+09,1.392961864399999916e+00
2.938363840000000000e+09,1.456500530200000032e+00
2.938367828000000000e+09,1.383186702699999993e+00
2.938371828000000000e+09,1.290322542099999970e+00
2.938375828000000000e+09,1.314760565700000106e+00
2.938379828000000000e+09,1.446725368400000100e+00
2.938383836000000000e+09,1.515151500700000042e+00
2.938387848000000000e+09,1.456500530200000032e+00
2.938391840000000000e+09,1.358748793600000004e+00
2.938395844000000000e+09,1.392961864399999916e+00
2.938399844000000000e+09,1.520039081500000000e+00
2.938403828000000000e+09,1.588465309100000056e+00
2.938407828000000000e+09,1.524926662399999966e+00
2.938411840000000000e+09,1.451612949300000066e+00
2.938415844000000000e+09,1.500488757999999923e+00
2.938419828000000000e+09,1.637341117799999912e+00
2.938423840000000000e+09,1.710654973900000098e+00
2.938427836000000000e+09,1.642228698700000100e+00
2.938431844000000000e+09,1.559139728499999933e+00
2.938435852000000000e+09,1.603128051699999945e+00
2.938439856000000000e+09,1.730205297399999953e+00
2.938443844000000000e+09,1.798631429600000109e+00
2.938447848000000000e+09,1.744868040000000065e+00
2.938451836000000000e+09,1.637341117799999912e+00
2.938455852000000000e+09,1.676441764800000067e+00
2.938459860000000000e+09,1.803519058200000025e+00
2.938463860000000000e+09,1.852394962300000003e+00
2.938467868000000000e+09,1.759530782599999954e+00
2.938471868000000000e+09,1.647116279600000066e+00
2.938475876000000000e+09,1.661779022199999956e+00
2.938479876000000000e+09,1.783968686999999997e+00
2.938483888000000000e+09,1.803519058200000025e+00
2.938487876000000000e+09,1.681329345700000033e+00
2.938491876000000000e+09,1.539589405000000077e+00
2.938495868000000000e+09,1.524926662399999966e+00
2.938499876000000000e+09,1.617790794300000057e+00
2.938503876000000000e+09,1.598240470799999979e+00
2.938507872000000000e+09,1.476050853700000109e+00
2.938511868000000000e+09,1.319648146600000072e+00
2.938515876000000000e+09,1.304985284800000089e+00
2.938519876000000000e+09,1.388074283499999950e+00
2.938523876000000000e+09,1.412512207000000020e+00
2.938527876000000000e+09,1.309872865600000047e+00
2.938531872000000000e+09,1.187683343800000069e+00
2.938535868000000000e+09,1.197458505600000001e+00
2.938539868000000000e+09,1.300097703899999901e+00
2.938543852000000000e+09,1.348973631800000073e+00
2.938547860000000000e+09,1.256109476000000003e+00
2.938551848000000000e+09,1.158357739399999975e+00
2.938555852000000000e+09,1.182795639000000065e+00
2.938559852000000000e+09,1.300097703899999901e+00
2.938563848000000000e+09,1.373411536199999894e+00
2.938567852000000000e+09,1.275659799500000080e+00
2.938571844000000000e+09,1.177908062900000052e+00
2.938575828000000000e+09,1.212121248199999890e+00
2.938579836000000000e+09,1.344086050900000107e+00
2.938583820000000000e+09,1.407624626100000054e+00
2.938587828000000000e+09,1.334310889199999961e+00
2.938591836000000000e+09,1.251221895200000045e+00
2.938595844000000000e+09,1.270772218699999900e+00
2.938599844000000000e+09,1.397849445300000104e+00
2.938603856000000000e+09,1.476050853700000109e+00
2.938607844000000000e+09,1.383186702699999993e+00
2.938611852000000000e+09,1.295210122999999935e+00
2.938615852000000000e+09,1.329423308299999995e+00
2.938619848000000000e+09,1.451612949300000066e+00
2.938623852000000000e+09,1.515151500700000042e+00
2.938627852000000000e+09,1.432062530500000097e+00
2.938631856000000000e+09,1.339198470099999927e+00
2.938635852000000000e+09,1.363636374399999962e+00
2.938639864000000000e+09,1.490713596299999999e+00
2.938643868000000000e+09,1.554252147599999967e+00
2.938647876000000000e+09,1.461388111099999998e+00
2.938651884000000000e+09,1.363636374399999962e+00
2.938655900000000000e+09,1.397849445300000104e+00
2.938659900000000000e+09,1.515151500700000042e+00
2.938663892000000000e+09,1.568914985599999978e+00
2.938667896000000000e+09,1.476050853700000109e+00
2.938671888000000000e+09,1.373411536199999894e+00
2.938675900000000000e+09,1.392961864399999916e+00
2.938679900000000000e+09,1.515151500700000042e+00
2.938683908000000000e+09,1.564027404700000012e+00
2.938687912000000000e+09,1.495601177199999965e+00
2.938691916000000000e+09,1.378299117000000074e+00
2.938695916000000000e+09,1.402737045200000088e+00
2.938699916000000000e+09,1.524926662399999966e+00
2.938703920000000000e+09,1.573802566499999944e+00
2.938707920000000000e+09,1.480938434600000075e+00
2.938711924000000000e+09,1.383186702699999993e+00
2.938715932000000000e+09,1.407624626100000054e+00
2.938719932000000000e+09,1.524926662399999966e+00
2.938723940000000000e+09,1.578690147299999902e+00
2.938727944000000000e+09,1.485826015400000033e+00
2.938731940000000000e+09,1.388074283499999950e+00
2.938735940000000000e+09,1.417399787899999986e+00
2.938739948000000000e+09,1.544476985900000043e+00
2.938743952000000000e+09,1.593352890000000022e+00
2.938747948000000000e+09,1.510263919800000076e+00
2.938751940000000000e+09,1.417399787899999986e+00
2.938755952000000000e+09,1.456500530200000032e+00
2.938759940000000000e+09,1.583577728200000090e+00
2.938763948000000000e+09,1.637341117799999912e+00
2.938767964000000000e+09,1.549364566800000009e+00
2.938771972000000000e+09,1.461388111099999998e+00
2.938775992000000000e+09,1.495601177199999965e+00
2.938779996000000000e+09,1.637341117799999912e+00
2.938784012000000000e+09,1.705767393099999918e+00
2.938788020000000000e+09,1.627565956099999989e+00
2.938792020000000000e+09,1.544476985900000043e+00
2.938796012000000000e+09,1.598240470799999979e+00
2.938800008000000000e+09,1.715542554800000064e+00
2.938804012000000000e+09,1.764418363499999920e+00
2.938808020000000000e+09,1.661779022199999956e+00
2.938812020000000000e+09,1.554252147599999967e+00
2.938816028000000000e+09,1.573802566499999944e+00
2.938820032000000000e+09,1.681329345700000033e+00
2.938824036000000000e+09,1.705767393099999918e+00
2.938828040000000000e+09,1.593352890000000022e+00
2.938832048000000000e+09,1.456500530200000032e+00
2.938836032000000000e+09,1.466275691899999956e+00
2.938840028000000000e+09,1.573802566499999944e+00
2.938844032000000000e+09,1.608015632599999911e+00
2.938848028000000000e+09,1.515151500700000042e+00
2.938852028000000000e+09,1.417399787899999986e+00
2.938856040000000000e+09,1.451612949300000066e+00
2.938860044000000000e+09,1.578690147299999902e+00
2.938864044000000000e+09,1.627565956099999989e+00
2.938868052000000000e+09,1.539589405000000077e+00
2.938872044000000000e+09,1.432062530500000097e+00
2.938876048000000000e+09,1.476050853700000109e+00
2.938880044000000000e+09,1.598240470799999979e+00
2.938884020000000000e+09,1.666666602999999913e+00
2.938888012000000000e+09,1.559139728499999933e+00
2.938892020000000000e+09,1.471163272799999922e+00
2.938896028000000000e+09,1.510263919800000076e+00
2.938900028000000000e+09,1.632453536899999946e+00
2.938904040000000000e+09,1.671554183900000101e+00
2.938908044000000000e+09,1.573802566499999944e+00
2.938912044000000000e+09,1.520039081500000000e+00
2.938916028000000000e+09,1.647116279600000066e+00
2.938920036000000000e+09,1.940371513299999906e+00
2.938924044000000000e+09,2.248289346600000016e+00
2.938928044000000000e+09,2.478005886000000046e+00
2.938932028000000000e+09,2.712610006299999821e+00
2.938936020000000000e+09,3.015640258699999965e+00
2.938940016000000000e+09,3.245356798099999995e+00
2.938944020000000000e+09,3.147605180699999838e+00
2.938948024000000000e+09,2.702834844499999889e+00
2.938952020000000000e+09,2.116324424700000151e+00
2.938956028000000000e+09,1.632453536899999946e+00
2.938960040000000000e+09,1.373411536199999894e+00
2.938964044000000000e+09,1.236559152599999933e+00
2.938968044000000000e+09,1.099706764200000020e+00
2.938972032000000000e+09,1.045943260100000050e+00
2.938976028000000000e+09,1.153470158500000009e+00
2.938980032000000000e+09,1.368523955299999928e+00
2.938984036000000000e+09,1.500488757999999923e+00
2.938988024000000000e+09,1.471163272799999922e+00
2.938992028000000000e+09,1.412512207000000020e+00
2.938996032000000000e+09,1.480938434600000075e+00
2.939000032000000000e+09,1.622678375200000023e+00
2.939004036000000000e+09,1.681329345700000033e+00
2.939008044000000000e+09,1.598240470799999979e+00
2.939012028000000000e+09,1.520039081500000000e+00
2.939016020000000000e+09,1.573802566499999944e+00
2.939020024000000000e+09,1.725317716499999987e+00
2.939024028000000000e+09,1.764418363499999920e+00
2.939028040000000000e+09,1.681329345700000033e+00
2.939032044000000000e+09,1.603128051699999945e+00
2.939036044000000000e+09,1.637341117799999912e+00
2.939040052000000000e+09,1.774193525300000074e+00
2.939044060000000000e+09,1.823069476999999994e+00
2.939048052000000000e+09,1.735092878299999919e+00
2.939052052000000000e+09,1.666666602999999913e+00
2.939056040000000000e+09,1.700879812199999952e+00
2.939060040000000000e+09,1.837732219600000105e+00
2.939064044000000000e+09,1.876832866600000038e+00
2.939068044000000000e+09,1.783968686999999997e+00
2.939072040000000000e+09,1.700879812199999952e+00
2.939076040000000000e+09,1.749755620900000030e+00
2.939080036000000000e+09,1.896383190099999894e+00
2.939084040000000000e+09,1.935483837100000049e+00
2.939088048000000000e+09,1.842619800500000071e+00
2.939092028000000000e+09,1.764418363499999920e+00
2.939096032000000000e+09,1.823069476999999994e+00
2.939100032000000000e+09,1.959921836799999983e+00
2.939104036000000000e+09,2.018572807299999994e+00
2.939108032000000000e+09,1.935483837100000049e+00
2.939112040000000000e+09,1.862170123999999927e+00
2.939116040000000000e+09,1.930596256200000083e+00
2.939120036000000000e+09,2.077223777699999996e+00
2.939124036000000000e+09,2.135874986600000192e+00
2.939128036000000000e+09,2.067448616000000072e+00
2.939132032000000000e+09,1.974584579400000095e+00
2.939136036000000000e+09,2.038123130699999841e+00
2.939140020000000000e+09,2.174975633599999902e+00
2.939144028000000000e+09,2.223851442299999981e+00
2.939148036000000000e+09,2.126099824899999824e+00
2.939152036000000000e+09,2.038123130699999841e+00
2.939156036000000000e+09,2.082111358600000184e+00
2.939160044000000000e+09,2.204301118800000125e+00
2.939164044000000000e+09,2.238514184900000092e+00
2.939168052000000000e+09,2.126099824899999824e+00
2.939172052000000000e+09,2.018572807299999994e+00
2.939176044000000000e+09,2.052785873399999961e+00
2.939180044000000000e+09,2.155425310100000047e+00
2.939184044000000000e+09,2.165200471799999971e+00
2.939188036000000000e+09,2.028347968999999917e+00
2.939192028000000000e+09,1.891495609199999928e+00
2.939196028000000000e+09,1.881720447500000004e+00
2.939200032000000000e+09,1.955034255900000018e+00
2.939204032000000000e+09,1.935483837100000049e+00
2.939208036000000000e+09,1.788856267899999963e+00
2.939212036000000000e+09,1.656891441299999990e+00
2.939216044000000000e+09,1.652003860400000024e+00
2.939220032000000000e+09,1.739980459200000107e+00
2.939224024000000000e+09,1.749755620900000030e+00
2.939228020000000000e+09,1.627565956099999989e+00
2.939232028000000000e+09,1.524926662399999966e+00
2.939236036000000000e+09,1.554252147599999967e+00
2.939240044000000000e+09,1.661779022199999956e+00
2.939244052000000000e+09,1.695992231299999986e+00
2.939248060000000000e+09,1.603128051699999945e+00
2.939252060000000000e+09,1.505376338900000110e+00
2.939256060000000000e+09,1.549364566800000009e+00
2.939260068000000000e+09,1.676441764800000067e+00
2.939264068000000000e+09,1.720430135700000029e+00
2.939268060000000000e+09,1.617790794300000057e+00
2.939272060000000000e+09,1.529814243299999932e+00
2.939276068000000000e+09,1.578690147299999902e+00
2.939280072000000000e+09,1.705767393099999918e+00
2.939284072000000000e+09,1.744868040000000065e+00
2.939288060000000000e+09,1.642228698700000100e+00
2.939292068000000000e+09,1.554252147599999967e+00
2.939296076000000000e+09,1.598240470799999979e+00
2.939300072000000000e+09,1.725317716499999987e+00
2.939304076000000000e+09,1.774193525300000074e+00
2.939308080000000000e+09,1.691104650400000020e+00
2.939312072000000000e+09,1.593352890000000022e+00
2.939316068000000000e+09,1.647116279600000066e+00
2.939320076000000000e+09,1.759530782599999954e+00
2.939324076000000000e+09,1.788856267899999963e+00
2.939328084000000000e+09,1.691104650400000020e+00
2.939332084000000000e+09,1.583577728200000090e+00
2.939336084000000000e+09,1.632453536899999946e+00
2.939340092000000000e+09,1.764418363499999920e+00
2.939344100000000000e+09,1.803519058200000025e+00
2.939348104000000000e+09,1.700879812199999952e+00
2.939352100000000000e+09,1.603128051699999945e+00
2.939356092000000000e+09,1.642228698700000100e+00
2.939360092000000000e+09,1.764418363499999920e+00
2.939364100000000000e+09,1.793743848799999929e+00
2.939368108000000000e+09,1.691104650400000020e+00
2.939372100000000000e+09,1.588465309100000056e+00
2.939376100000000000e+09,1.627565956099999989e+00
2.939380112000000000e+09,1.749755620900000030e+00
2.939384108000000000e+09,1.779081106100000031e+00
2.939388108000000000e+09,1.681329345700000033e+00
2.939392116000000000e+09,1.568914985599999978e+00
2.939396124000000000e+09,1.608015632599999911e+00
2.939400120000000000e+09,1.730205297399999953e+00
2.939404108000000000e+09,1.754643201799999996e+00
2.939408108000000000e+09,1.642228698700000100e+00
2.939412116000000000e+09,1.549364566800000009e+00
2.939416128000000000e+09,1.593352890000000022e+00
2.939420116000000000e+09,1.720430135700000029e+00
2.939424120000000000e+09,1.749755620900000030e+00
2.939428116000000000e+09,1.647116279600000066e+00
2.939432124000000000e+09,1.554252147599999967e+00
2.939436124000000000e+09,1.603128051699999945e+00
2.939440120000000000e+09,1.730205297399999953e+00
2.939444108000000000e+09,1.769305944400000108e+00
2.939448108000000000e+09,1.661779022199999956e+00
2.939452108000000000e+09,1.568914985599999978e+00
2.939456112000000000e+09,1.622678375200000023e+00
2.939460120000000000e+09,1.730205297399999953e+00
2.939464108000000000e+09,1.759530782599999954e+00
2.939468108000000000e+09,1.652003860400000024e+00
2.939472100000000000e+09,1.568914985599999978e+00
2.939476104000000000e+09,1.622678375200000023e+00
2.939480108000000000e+09,1.754643201799999996e+00
2.939484100000000000e+09,1.798631429600000109e+00
2.939488112000000000e+09,1.686216926499999991e+00
2.939492120000000000e+09,1.593352890000000022e+00
2.939496116000000000e+09,1.656891441299999990e+00
2.939500124000000000e+09,1.783968686999999997e+00
2.939504120000000000e+09,1.837732219600000105e+00
2.939508124000000000e+09,1.754643201799999996e+00
2.939512128000000000e+09,1.686216926499999991e+00
2.939516136000000000e+09,1.739980459200000107e+00
2.939520136000000000e+09,1.867057704899999893e+00
2.939524124000000000e+09,1.911045932700000005e+00
2.939528116000000000e+09,1.803519058200000025e+00
2.939532112000000000e+09,1.715542554800000064e+00
2.939536120000000000e+09,1.749755620900000030e+00
2.939540120000000000e+09,1.857282543099999961e+00
2.939544128000000000e+09,1.867057704899999893e+00
2.939548128000000000e+09,1.730205297399999953e+00
2.939552124000000000e+09,1.617790794300000057e+00
2.939556124000000000e+09,1.637341117799999912e+00
2.939560136000000000e+09,1.739980459200000107e+00
2.939564124000000000e+09,1.764418363499999920e+00
2.939568124000000000e+09,1.642228698700000100e+00
2.939572124000000000e+09,1.549364566800000009e+00
2.939576132000000000e+09,1.598240470799999979e+00
2.939580128000000000e+09,1.725317716499999987e+00
2.939584140000000000e+09,1.764418363499999920e+00
2.939588148000000000e+09,1.656891441299999990e+00
2.939592156000000000e+09,1.573802566499999944e+00
2.939596156000000000e+09,1.627565956099999989e+00
2.939600168000000000e+09,1.749755620900000030e+00
2.939604164000000000e+09,1.774193525300000074e+00
2.939608168000000000e+09,1.671554183900000101e+00
2.939612172000000000e+09,1.588465309100000056e+00
2.939616164000000000e+09,1.642228698700000100e+00
2.939620164000000000e+09,1.774193525300000074e+00
2.939624172000000000e+09,1.803519058200000025e+00
2.939628172000000000e+09,1.691104650400000020e+00
2.939632168000000000e+09,1.622678375200000023e+00
2.939636172000000000e+09,1.735092878299999919e+00
2.939640176000000000e+09,1.979472160300000061e+00
2.939644180000000000e+09,2.218963861399999793e+00
2.939648196000000000e+09,2.404692172999999933e+00
2.939652180000000000e+09,2.629521131500000219e+00
2.939656184000000000e+09,2.976539611799999818e+00
2.939660196000000000e+09,3.289345025999999894e+00
2.939664196000000000e+09,3.284457445100000150e+00
2.939668204000000000e+09,2.932551383899999919e+00
2.939672212000000000e+09,2.404692172999999933e+00
2.939676212000000000e+09,1.930596256200000083e+00
2.939680212000000000e+09,1.612903213500000099e+00
2.939684220000000000e+09,1.368523955299999928e+00
2.939688224000000000e+09,1.173020482000000086e+00
2.939692208000000000e+09,1.099706764200000020e+00
2.939696188000000000e+09,1.212121248199999890e+00
2.939700196000000000e+09,1.422287368699999943e+00
2.939704204000000000e+09,1.559139728499999933e+00
2.939708212000000000e+09,1.544476985900000043e+00
2.939712212000000000e+09,1.520039081500000000e+00
2.939716204000000000e+09,1.608015632599999911e+00
2.939720204000000000e+09,1.754643201799999996e+00
2.939724204000000000e+09,1.803519058200000025e+00
2.939728196000000000e+09,1.715542554800000064e+00
2.939732204000000000e+09,1.642228698700000100e+00
2.939736212000000000e+09,1.705767393099999918e+00
2.939740216000000000e+09,1.842619800500000071e+00
2.939744204000000000e+09,1.881720447500000004e+00
2.939748204000000000e+09,1.779081106100000031e+00
2.939752204000000000e+09,1.700879812199999952e+00
2.939756196000000000e+09,1.759530782599999954e+00
2.939760196000000000e+09,1.891495609199999928e+00
2.939764196000000000e+09,1.925708675299999895e+00
2.939768196000000000e+09,1.813294315300000070e+00
2.939772212000000000e+09,1.735092878299999919e+00
2.939776212000000000e+09,1.788856267899999963e+00
2.939780204000000000e+09,1.915933513599999971e+00
2.939784212000000000e+09,1.945259094200000094e+00
2.939788204000000000e+09,1.837732219600000105e+00
2.939792212000000000e+09,1.759530782599999954e+00
2.939796212000000000e+09,1.827957057899999960e+00
2.939800212000000000e+09,1.950146675100000060e+00
2.939804220000000000e+09,1.979472160300000061e+00
2.939808228000000000e+09,1.881720447500000004e+00
2.939812228000000000e+09,1.793743848799999929e+00
2.939816236000000000e+09,1.862170123999999927e+00
2.939820240000000000e+09,1.994134902899999950e+00
2.939824236000000000e+09,2.033235549900000105e+00
2.939828236000000000e+09,1.935483837100000049e+00
2.939832236000000000e+09,1.857282543099999961e+00
2.939836240000000000e+09,1.925708675299999895e+00
2.939840236000000000e+09,2.067448616000000072e+00
2.939844228000000000e+09,2.111436843799999963e+00
2.939848236000000000e+09,2.023460388100000173e+00
2.939852236000000000e+09,1.940371513299999906e+00
2.939856236000000000e+09,2.008797645500000062e+00
2.939860228000000000e+09,2.145650148300000115e+00
2.939864236000000000e+09,2.179863214400000082e+00
2.939868236000000000e+09,2.072336196799999808e+00
2.939872232000000000e+09,1.994134902899999950e+00
2.939876228000000000e+09,2.052785873399999961e+00
2.939880228000000000e+09,2.170088052700000159e+00
2.939884220000000000e+09,2.179863214400000082e+00
2.939888228000000000e+09,2.043010711600000029e+00
2.939892220000000000e+09,1.940371513299999906e+00
2.939896232000000000e+09,1.984359741200000027e+00
2.939900236000000000e+09,2.077223777699999996e+00
2.939904236000000000e+09,2.067448616000000072e+00
2.939908236000000000e+09,1.911045932700000005e+00
2.939912236000000000e+09,1.783968686999999997e+00
2.939916228000000000e+09,1.803519058200000025e+00
2.939920220000000000e+09,1.862170123999999927e+00
2.939924220000000000e+09,1.842619800500000071e+00
2.939928212000000000e+09,1.671554183900000101e+00
2.939932220000000000e+09,1.549364566800000009e+00
2.939936228000000000e+09,1.554252147599999967e+00
2.939940236000000000e+09,1.637341117799999912e+00
2.939944240000000000e+09,1.627565956099999989e+00
2.939948248000000000e+09,1.485826015400000033e+00
2.939952240000000000e+09,1.378299117000000074e+00
2.939956244000000000e+09,1.402737045200000088e+00
2.939960228000000000e+09,1.505376338900000110e+00
2.939964228000000000e+09,1.534701824099999889e+00
2.939968236000000000e+09,1.407624626100000054e+00
2.939972236000000000e+09,1.329423308299999995e+00
2.939976240000000000e+09,1.378299117000000074e+00
2.939980236000000000e+09,1.500488757999999923e+00
2.939984220000000000e+09,1.534701824099999889e+00
2.939988228000000000e+09,1.436950111300000055e+00
2.939992236000000000e+09,1.363636374399999962e+00
2.939996240000000000e+09,1.417399787899999986e+00
2.940000236000000000e+09,1.549364566800000009e+00
2.940004240000000000e+09,1.583577728200000090e+00
2.940008240000000000e+09,1.476050853700000109e+00
2.940012236000000000e+09,1.402737045200000088e+00
2.940016236000000000e+09,1.466275691899999956e+00
2.940020240000000000e+09,1.598240470799999979e+00
2.940024236000000000e+09,1.637341117799999912e+00
2.940028240000000000e+09,1.534701824099999889e+00
2.940032240000000000e+09,1.466275691899999956e+00
2.940036240000000000e+09,1.524926662399999966e+00
2.940040244000000000e+09,1.656891441299999990e+00
2.940044240000000000e+09,1.700879812199999952e+00
2.940048236000000000e+09,1.588465309100000056e+00
2.940052236000000000e+09,1.515151500700000042e+00
2.940056236000000000e+09,1.568914985599999978e+00
2.940060236000000000e+09,1.700879812199999952e+00
2.940064228000000000e+09,1.730205297399999953e+00
2.940068220000000000e+09,1.617790794300000057e+00
2.940072220000000000e+09,1.534701824099999889e+00
2.940076228000000000e+09,1.588465309100000056e+00
2.940080228000000000e+09,1.725317716499999987e+00
2.940084236000000000e+09,1.744868040000000065e+00
2.940088220000000000e+09,1.642228698700000100e+00
2.940092228000000000e+09,1.559139728499999933e+00
2.940096236000000000e+09,1.617790794300000057e+00
2.940100236000000000e+09,1.739980459200000107e+00
2.940104236000000000e+09,1.759530782599999954e+00
2.940108236000000000e+09,1.642228698700000100e+00
2.940112240000000000e+09,1.564027404700000012e+00
2.940116228000000000e+09,1.617790794300000057e+00
2.940120240000000000e+09,1.749755620900000030e+00
2.940124228000000000e+09,1.769305944400000108e+00
2.940128220000000000e+09,1.656891441299999990e+00
2.940132228000000000e+09,1.568914985599999978e+00
2.940136236000000000e+09,1.622678375200000023e+00
2.940140240000000000e+09,1.749755620900000030e+00
2.940144240000000000e+09,1.774193525300000074e+00
2.940148240000000000e+09,1.661779022199999956e+00
2.940152240000000000e+09,1.588465309100000056e+00
2.940156236000000000e+09,1.637341117799999912e+00
2.940160244000000000e+09,1.769305944400000108e+00
2.940164240000000000e+09,1.788856267899999963e+00
2.940168244000000000e+09,1.681329345700000033e+00
2.940172240000000000e+09,1.598240470799999979e+00
2.940176236000000000e+09,1.661779022199999956e+00
2.940180240000000000e+09,1.793743848799999929e+00
2.940184240000000000e+09,1.813294315300000070e+00
2.940188240000000000e+09,1.705767393099999918e+00
2.940192240000000000e+09,1.622678375200000023e+00
2.940196240000000000e+09,1.681329345700000033e+00
2.940200240000000000e+09,1.808406638999999982e+00
2.940204228000000000e+09,1.827957057899999960e+00
2.940208220000000000e+09,1.735092878299999919e+00
2.940212212000000000e+09,1.671554183900000101e+00
2.940216224000000000e+09,1.749755620900000030e+00
2.940220220000000000e+09,1.886608028399999970e+00
2.940224220000000000e+09,1.915933513599999971e+00
2.940228228000000000e+09,1.818181896200000036e+00
2.940232236000000000e+09,1.725317716499999987e+00
2.940236240000000000e+09,1.788856267899999963e+00
2.940240240000000000e+09,1.920821094499999937e+00
2.940244236000000000e+09,1.915933513599999971e+00
2.940248240000000000e+09,1.783968686999999997e+00
2.940252228000000000e+09,1.676441764800000067e+00
2.940256228000000000e+09,1.705767393099999918e+00
2.940260228000000000e+09,1.803519058200000025e+00
2.940264220000000000e+09,1.798631429600000109e+00
2.940268228000000000e+09,1.661779022199999956e+00
2.940272228000000000e+09,1.564027404700000012e+00
2.940276220000000000e+09,1.608015632599999911e+00
2.940280220000000000e+09,1.730205297399999953e+00
2.940284224000000000e+09,1.749755620900000030e+00
2.940288220000000000e+09,1.637341117799999912e+00
2.940292228000000000e+09,1.554252147599999967e+00
2.940296236000000000e+09,1.612903213500000099e+00
2.940300236000000000e+09,1.725317716499999987e+00
2.940304248000000000e+09,1.744868040000000065e+00
2.940308236000000000e+09,1.632453536899999946e+00
2.940312240000000000e+09,1.539589405000000077e+00
2.940316236000000000e+09,1.598240470799999979e+00
2.940320228000000000e+09,1.725317716499999987e+00
2.940324240000000000e+09,1.749755620900000030e+00
2.940328236000000000e+09,1.637341117799999912e+00
2.940332240000000000e+09,1.554252147599999967e+00
2.940336236000000000e+09,1.603128051699999945e+00
2.940340236000000000e+09,1.735092878299999919e+00
2.940344228000000000e+09,1.818181896200000036e+00
2.940348236000000000e+09,1.837732219600000105e+00
2.940352240000000000e+09,1.979472160300000061e+00
2.940356240000000000e+09,2.326490640599999882e+00
2.940360236000000000e+09,2.761485814999999899e+00
2.940364236000000000e+09,3.069403648299999787e+00
2.940368228000000000e+09,3.108504295299999942e+00
2.940372220000000000e+09,2.966764449999999886e+00
2.940376220000000000e+09,2.751710653299999976e+00
2.940380220000000000e+09,2.414467334699999856e+00
2.940384220000000000e+09,1.940371513299999906e+00
2.940388228000000000e+09,1.427174949599999909e+00
2.940392232000000000e+09,1.094819183300000054e+00
2.940396232000000000e+09,1.031280517499999938e+00
2.940400224000000000e+09,1.158357739399999975e+00
2.940404236000000000e+09,1.256109476000000003e+00
2.940408228000000000e+09,1.256109476000000003e+00
2.940412220000000000e+09,1.280547380400000046e+00
2.940416212000000000e+09,1.412512207000000020e+00
2.940420204000000000e+09,1.588465309100000056e+00
2.940424204000000000e+09,1.656891441299999990e+00
2.940428204000000000e+09,1.578690147299999902e+00
2.940432204000000000e+09,1.529814243299999932e+00
2.940436212000000000e+09,1.588465309100000056e+00
2.940440212000000000e+09,1.720430135700000029e+00
2.940444212000000000e+09,1.754643201799999996e+00
2.940448212000000000e+09,1.656891441299999990e+00
2.940452220000000000e+09,1.598240470799999979e+00
2.940456212000000000e+09,1.656891441299999990e+00
2.940460220000000000e+09,1.798631429600000109e+00
2.940464220000000000e+09,1.823069476999999994e+00
2.940468212000000000e+09,1.720430135700000029e+00
2.940472212000000000e+09,1.647116279600000066e+00
2.940476220000000000e+09,1.715542554800000064e+00
2.940480228000000000e+09,1.847507381400000037e+00
2.940484228000000000e+09,1.871945285700000072e+00
2.940488236000000000e+09,1.764418363499999920e+00
2.940492240000000000e+09,1.691104650400000020e+00
2.940496236000000000e+09,1.759530782599999954e+00
2.940500236000000000e+09,1.891495609199999928e+00
2.940504236000000000e+09,1.920821094499999937e+00
2.940508228000000000e+09,1.813294315300000070e+00
2.940512228000000000e+09,1.759530782599999954e+00
2.940516228000000000e+09,1.823069476999999994e+00
2.940520224000000000e+09,1.964809417699999949e+00
2.940524220000000000e+09,1.979472160300000061e+00
2.940528228000000000e+09,1.871945285700000072e+00
2.940532236000000000e+09,1.813294315300000070e+00
2.940536240000000000e+09,1.891495609199999928e+00
2.940540236000000000e+09,2.033235549900000105e+00
2.940544232000000000e+09,2.062561035099999884e+00
2.940548240000000000e+09,1.964809417699999949e+00
2.940552236000000000e+09,1.906158351800000039e+00
2.940556240000000000e+09,1.989247321999999984e+00
2.940560236000000000e+09,2.130987405700000004e+00
2.940564228000000000e+09,2.160312890999999791e+00
2.940568228000000000e+09,2.057673454200000140e+00
2.940572232000000000e+09,1.994134902899999950e+00
2.940576228000000000e+09,2.067448616000000072e+00
2.940580220000000000e+09,2.194525957100000202e+00
2.940584228000000000e+09,2.199413537899999938e+00
2.940588236000000000e+09,2.072336196799999808e+00
2.940592236000000000e+09,1.989247321999999984e+00
2.940596232000000000e+09,2.043010711600000029e+00
2.940600220000000000e+09,2.150537729199999859e+00
2.940604228000000000e+09,2.145650148300000115e+00
2.940608224000000000e+09,2.003910064599999874e+00
2.940612212000000000e+09,1.886608028399999970e+00
2.940616212000000000e+09,1.911045932700000005e+00
2.940620224000000000e+09,1.989247321999999984e+00
2.940624220000000000e+09,1.959921836799999983e+00
2.940628220000000000e+09,1.808406638999999982e+00
2.940632212000000000e+09,1.666666602999999913e+00
2.940636212000000000e+09,1.686216926499999991e+00
2.940640216000000000e+09,1.749755620900000030e+00
2.940644212000000000e+09,1.725317716499999987e+00
2.940648228000000000e+09,1.573802566499999944e+00
2.940652228000000000e+09,1.471163272799999922e+00
2.940656236000000000e+09,1.500488757999999923e+00
2.940660220000000000e+09,1.598240470799999979e+00
2.940664212000000000e+09,1.603128051699999945e+00
2.940668212000000000e+09,1.476050853700000109e+00
2.940672212000000000e+09,1.397849445300000104e+00
2.940676212000000000e+09,1.466275691899999956e+00
2.940680220000000000e+09,1.564027404700000012e+00
2.940684204000000000e+09,1.583577728200000090e+00
2.940688212000000000e+09,1.476050853700000109e+00
2.940692204000000000e+09,1.402737045200000088e+00
2.940696204000000000e+09,1.466275691899999956e+00
2.940700212000000000e+09,1.593352890000000022e+00
2.940704212000000000e+09,1.627565956099999989e+00
2.940708220000000000e+09,1.520039081500000000e+00
2.940712212000000000e+09,1.451612949300000066e+00
2.940716220000000000e+09,1.524926662399999966e+00
2.940720220000000000e+09,1.652003860400000024e+00
2.940724204000000000e+09,1.681329345700000033e+00
2.940728212000000000e+09,1.573802566499999944e+00
2.940732220000000000e+09,1.500488757999999923e+00
2.940736212000000000e+09,1.573802566499999944e+00
2.940740212000000000e+09,1.705767393099999918e+00
2.940744212000000000e+09,1.744868040000000065e+00
2.940748204000000000e+09,1.627565956099999989e+00
2.940752212000000000e+09,1.559139728499999933e+00
2.940756220000000000e+09,1.627565956099999989e+00
2.940760236000000000e+09,1.754643201799999996e+00
2.940764236000000000e+09,1.769305944400000108e+00
2.940768228000000000e+09,1.652003860400000024e+00
2.940772220000000000e+09,1.583577728200000090e+00
2.940776228000000000e+09,1.647116279600000066e+00
2.940780236000000000e+09,1.774193525300000074e+00
2.940784240000000000e+09,1.783968686999999997e+00
2.940788236000000000e+09,1.666666602999999913e+00
2.940792236000000000e+09,1.583577728200000090e+00
2.940796240000000000e+09,1.652003860400000024e+00
2.940800236000000000e+09,1.769305944400000108e+00
2.940804228000000000e+09,1.779081106100000031e+00
2.940808228000000000e+09,1.661779022199999956e+00
2.940812220000000000e+09,1.583577728200000090e+00
2.940816228000000000e+09,1.647116279600000066e+00
2.940820240000000000e+09,1.774193525300000074e+00
2.940824244000000000e+09,1.798631429600000109e+00
2.940828244000000000e+09,1.676441764800000067e+00
2.940832244000000000e+09,1.598240470799999979e+00
2.940836236000000000e+09,1.661779022199999956e+00
2.940840236000000000e+09,1.783968686999999997e+00
2.940844236000000000e+09,1.793743848799999929e+00
2.940848236000000000e+09,1.671554183900000101e+00
2.940852244000000000e+09,1.593352890000000022e+00
2.940856236000000000e+09,1.647116279600000066e+00
2.940860240000000000e+09,1.769305944400000108e+00
2.940864236000000000e+09,1.783968686999999997e+00
2.940868236000000000e+09,1.661779022199999956e+00
2.940872236000000000e+09,1.598240470799999979e+00
2.940876228000000000e+09,1.647116279600000066e+00
2.940880236000000000e+09,1.774193525300000074e+00
2.940884240000000000e+09,1.798631429600000109e+00
2.940888240000000000e+09,1.671554183900000101e+00
2.940892236000000000e+09,1.608015632599999911e+00
2.940896228000000000e+09,1.661779022199999956e+00
2.940900228000000000e+09,1.788856267899999963e+00
2.940904228000000000e+09,1.803519058200000025e+00
2.940908228000000000e+09,1.686216926499999991e+00
2.940912236000000000e+09,1.612903213500000099e+00
2.940916244000000000e+09,1.676441764800000067e+00
2.940920248000000000e+09,1.808406638999999982e+00
2.940924236000000000e+09,1.837732219600000105e+00
2.940928244000000000e+09,1.735092878299999919e+00
2.940932240000000000e+09,1.691104650400000020e+00
2.940936236000000000e+09,1.754643201799999996e+00
2.940940228000000000e+09,1.881720447500000004e+00
2.940944232000000000e+09,1.906158351800000039e+00
2.940948228000000000e+09,1.793743848799999929e+00
2.940952236000000000e+09,1.720430135700000029e+00
2.940956236000000000e+09,1.783968686999999997e+00
2.940960228000000000e+09,1.896383190099999894e+00
2.940964228000000000e+09,1.896383190099999894e+00
2.940968228000000000e+09,1.759530782599999954e+00
2.940972228000000000e+09,1.652003860400000024e+00
2.940976212000000000e+09,1.681329345700000033e+00
2.940980220000000000e+09,1.779081106100000031e+00
2.940984212000000000e+09,1.779081106100000031e+00
2.940988212000000000e+09,1.647116279600000066e+00
2.940992220000000000e+09,1.559139728499999933e+00
2.940996220000000000e+09,1.622678375200000023e+00
2.941000228000000000e+09,1.744868040000000065e+00
2.941004212000000000e+09,1.754643201799999996e+00
2.941008212000000000e+09,1.632453536899999946e+00
2.941012220000000000e+09,1.554252147599999967e+00
2.941016236000000000e+09,1.612903213500000099e+00
2.941020236000000000e+09,1.730205297399999953e+00
2.941024232000000000e+09,1.749755620900000030e+00
2.941028228000000000e+09,1.637341117799999912e+00
2.941032236000000000e+09,1.559139728499999933e+00
2.941036240000000000e+09,1.627565956099999989e+00
2.941040240000000000e+09,1.764418363499999920e+00
2.941044240000000000e+09,1.764418363499999920e+00
2.941048240000000000e+09,1.642228698700000100e+00
2.941052240000000000e+09,1.554252147599999967e+00
2.941056240000000000e+09,1.642228698700000100e+00
2.941060240000000000e+09,1.842619800500000071e+00
2.941064232000000000e+09,2.018572807299999994e+00
2.941068220000000000e+09,2.150537729199999859e+00
2.941072220000000000e+09,2.390029430299999813e+00
2.941076212000000000e+09,2.776148557600000011e+00
2.941080220000000000e+09,3.181818246799999805e+00
2.941084228000000000e+09,3.328445672900000041e+00
2.941088228000000000e+09,3.098729133600000019e+00
2.941092228000000000e+09,2.722385168000000188e+00
2.941096228000000000e+09,2.287389993600000171e+00
2.941100228000000000e+09,1.881720447500000004e+00
2.941104228000000000e+09,1.510263919800000076e+00
2.941108232000000000e+09,1.197458505600000001e+00
2.941112224000000000e+09,1.045943260100000050e+00
2.941116224000000000e+09,1.104594349799999931e+00
2.941120220000000000e+09,1.280547380400000046e+00
2.941124212000000000e+09,1.392961864399999916e+00
2.941128220000000000e+09,1.373411536199999894e+00
2.941132236000000000e+09,1.368523955299999928e+00
2.941136240000000000e+09,1.476050853700000109e+00
2.941140236000000000e+09,1.627565956099999989e+00
2.941144240000000000e+09,1.671554183900000101e+00
2.941148236000000000e+09,1.573802566499999944e+00
2.941152228000000000e+09,1.515151500700000042e+00
2.941156228000000000e+09,1.588465309100000056e+00
2.941160228000000000e+09,1.720430135700000029e+00
2.941164228000000000e+09,1.759530782599999954e+00
2.941168228000000000e+09,1.637341117799999912e+00
2.941172236000000000e+09,1.578690147299999902e+00
2.941176236000000000e+09,1.652003860400000024e+00
2.941180228000000000e+09,1.779081106100000031e+00
2.941184228000000000e+09,1.798631429600000109e+00
2.941188236000000000e+09,1.686216926499999991e+00
2.941192244000000000e+09,1.622678375200000023e+00
2.941196240000000000e+09,1.695992231299999986e+00
2.941200240000000000e+09,1.832844638799999926e+00
2.941204240000000000e+09,1.862170123999999927e+00
2.941208240000000000e+09,1.749755620900000030e+00
2.941212236000000000e+09,1.681329345700000033e+00
2.941216240000000000e+09,1.744868040000000065e+00
2.941220228000000000e+09,1.876832866600000038e+00
2.941224228000000000e+09,1.891495609199999928e+00
2.941228228000000000e+09,1.783968686999999997e+00
2.941232220000000000e+09,1.730205297399999953e+00
2.941236212000000000e+09,1.813294315300000070e+00
2.941240220000000000e+09,1.955034255900000018e+00
2.941244224000000000e+09,1.964809417699999949e+00
2.941248220000000000e+09,1.857282543099999961e+00
2.941252228000000000e+09,1.793743848799999929e+00
2.941256236000000000e+09,1.881720447500000004e+00
2.941260236000000000e+09,2.023460388100000173e+00
2.941264228000000000e+09,2.057673454200000140e+00
2.941268228000000000e+09,1.959921836799999983e+00
2.941272236000000000e+09,1.920821094499999937e+00
2.941276232000000000e+09,1.999022483799999916e+00
2.941280220000000000e+09,2.135874986600000192e+00
2.941284228000000000e+09,2.155425310100000047e+00
2.941288236000000000e+09,2.043010711600000029e+00
2.941292232000000000e+09,1.974584579400000095e+00
2.941296236000000000e+09,2.043010711600000029e+00
2.941300228000000000e+09,2.184750795299999826e+00
2.941304228000000000e+09,2.174975633599999902e+00
2.941308236000000000e+09,2.052785873399999961e+00
2.941312240000000000e+09,1.974584579400000095e+00
2.941316236000000000e+09,2.038123130699999841e+00
2.941320232000000000e+09,2.150537729199999859e+00
2.941324228000000000e+09,2.126099824899999824e+00
2.941328232000000000e+09,1.984359741200000027e+00
2.941332236000000000e+09,1.871945285700000072e+00
2.941336240000000000e+09,1.896383190099999894e+00
2.941340236000000000e+09,1.979472160300000061e+00
2.941344236000000000e+09,1.930596256200000083e+00
2.941348236000000000e+09,1.764418363499999920e+00
2.941352240000000000e+09,1.642228698700000100e+00
2.941356236000000000e+09,1.656891441299999990e+00
2.941360240000000000e+09,1.749755620900000030e+00
2.941364236000000000e+09,1.710654973900000098e+00
2.941368228000000000e+09,1.573802566499999944e+00
2.941372228000000000e+09,1.471163272799999922e+00
2.941376236000000000e+09,1.520039081500000000e+00
2.941380228000000000e+09,1.622678375200000023e+00
2.941384236000000000e+09,1.627565956099999989e+00
2.941388236000000000e+09,1.505376338900000110e+00
2.941392236000000000e+09,1.436950111300000055e+00
2.941396236000000000e+09,1.500488757999999923e+00
2.941400228000000000e+09,1.622678375200000023e+00
2.941404236000000000e+09,1.642228698700000100e+00
2.941408236000000000e+09,1.534701824099999889e+00
2.941412240000000000e+09,1.461388111099999998e+00
2.941416244000000000e+09,1.529814243299999932e+00
2.941420244000000000e+09,1.656891441299999990e+00
2.941424248000000000e+09,1.671554183900000101e+00
2.941428244000000000e+09,1.564027404700000012e+00
2.941432236000000000e+09,1.500488757999999923e+00
2.941436228000000000e+09,1.588465309100000056e+00
2.941440228000000000e+09,1.715542554800000064e+00
2.941444236000000000e+09,1.735092878299999919e+00
2.941448236000000000e+09,1.622678375200000023e+00
2.941452236000000000e+09,1.559139728499999933e+00
2.941456236000000000e+09,1.637341117799999912e+00
2.941460240000000000e+09,1.769305944400000108e+00
2.941464236000000000e+09,1.788856267899999963e+00
2.941468240000000000e+09,1.686216926499999991e+00
2.941472240000000000e+09,1.612903213500000099e+00
2.941476240000000000e+09,1.695992231299999986e+00
2.941480240000000000e+09,1.813294315300000070e+00
2.941484248000000000e+09,1.827957057899999960e+00
2.941488236000000000e+09,1.710654973900000098e+00
2.941492244000000000e+09,1.642228698700000100e+00
2.941496236000000000e+09,1.710654973900000098e+00
2.941500236000000000e+09,1.832844638799999926e+00
2.941504240000000000e+09,1.842619800500000071e+00
2.941508228000000000e+09,1.720430135700000029e+00
2.941512228000000000e+09,1.656891441299999990e+00
2.941516236000000000e+09,1.720430135700000029e+00
2.941520236000000000e+09,1.842619800500000071e+00
2.941524228000000000e+09,1.847507381400000037e+00
2.941528236000000000e+09,1.715542554800000064e+00
2.941532236000000000e+09,1.647116279600000066e+00
2.941536236000000000e+09,1.710654973900000098e+00
2.941540236000000000e+09,1.823069476999999994e+00
2.941544228000000000e+09,1.837732219600000105e+00
2.941548236000000000e+09,1.695992231299999986e+00
2.941552236000000000e+09,1.627565956099999989e+00
2.941556240000000000e+09,1.691104650400000020e+00
2.941560236000000000e+09,1.803519058200000025e+00
2.941564236000000000e+09,1.813294315300000070e+00
2.941568240000000000e+09,1.681329345700000033e+00
2.941572240000000000e+09,1.617790794300000057e+00
2.941576236000000000e+09,1.686216926499999991e+00
2.941580236000000000e+09,1.808406638999999982e+00
2.941584228000000000e+09,1.808406638999999982e+00
2.941588212000000000e+09,1.691104650400000020e+00
2.941592212000000000e+09,1.617790794300000057e+00
2.941596212000000000e+09,1.695992231299999986e+00
2.941600220000000000e+09,1.827957057899999960e+00
2.941604220000000000e+09,1.832844638799999926e+00
2.941608220000000000e+09,1.715542554800000064e+00
2.941612228000000000e+09,1.642228698700000100e+00
2.941616228000000000e+09,1.705767393099999918e+00
2.941620236000000000e+09,1.837732219600000105e+00
2.941624236000000000e+09,1.857282543099999961e+00
2.941628240000000000e+09,1.764418363499999920e+00
2.941632240000000000e+09,1.720430135700000029e+00
2.941636236000000000e+09,1.803519058200000025e+00
2.941640228000000000e+09,1.935483837100000049e+00
2.941644236000000000e+09,1.940371513299999906e+00
2.941648240000000000e+09,1.823069476999999994e+00
2.941652232000000000e+09,1.749755620900000030e+00
2.941656236000000000e+09,1.813294315300000070e+00
2.941660236000000000e+09,1.925708675299999895e+00
2.941664236000000000e+09,1.911045932700000005e+00
2.941668240000000000e+09,1.769305944400000108e+00
2.941672236000000000e+09,1.676441764800000067e+00
2.941676240000000000e+09,1.725317716499999987e+00
2.941680240000000000e+09,1.827957057899999960e+00
2.941684236000000000e+09,1.823069476999999994e+00
2.941688236000000000e+09,1.695992231299999986e+00
2.941692240000000000e+09,1.617790794300000057e+00
2.941696240000000000e+09,1.686216926499999991e+00
2.941700240000000000e+09,1.808406638999999982e+00
2.941704228000000000e+09,1.813294315300000070e+00
2.941708228000000000e+09,1.691104650400000020e+00
2.941712228000000000e+09,1.617790794300000057e+00
2.941716228000000000e+09,1.686216926499999991e+00
2.941720236000000000e+09,1.808406638999999982e+00
2.941724228000000000e+09,1.803519058200000025e+00
2.941728220000000000e+09,1.681329345700000033e+00
2.941732228000000000e+09,1.608015632599999911e+00
2.941736228000000000e+09,1.681329345700000033e+00
2.941740240000000000e+09,1.818181896200000036e+00
2.941744236000000000e+09,1.808406638999999982e+00
2.941748220000000000e+09,1.676441764800000067e+00
2.941752228000000000e+09,1.603128051699999945e+00
2.941756228000000000e+09,1.705767393099999918e+00
2.941760228000000000e+09,1.920821094499999937e+00
2.941764220000000000e+09,2.116324424700000151e+00
2.941768228000000000e+09,2.272727251000000059e+00
2.941772228000000000e+09,2.531769275599999869e+00
2.941776236000000000e+09,2.927663803100000184e+00
2.941780240000000000e+09,3.304007768600000006e+00
2.941784236000000000e+09,3.377321720099999869e+00
2.941788236000000000e+09,3.093841552699999831e+00
2.941792228000000000e+09,2.668621778399999922e+00
2.941796228000000000e+09,2.218963861399999793e+00
2.941800236000000000e+09,1.827957057899999960e+00
2.941804236000000000e+09,1.490713596299999999e+00
2.941808236000000000e+09,1.221896409900000036e+00
2.941812232000000000e+09,1.094819183300000054e+00
2.941816232000000000e+09,1.192570924700000035e+00
2.941820236000000000e+09,1.358748793600000004e+00
2.941824240000000000e+09,1.461388111099999998e+00
2.941828248000000000e+09,1.446725368400000100e+00
2.941832244000000000e+09,1.427174949599999909e+00
2.941836236000000000e+09,1.539589405000000077e+00
2.941840228000000000e+09,1.676441764800000067e+00
2.941844236000000000e+09,1.710654973900000098e+00
2.941848236000000000e+09,1.608015632599999911e+00
2.941852236000000000e+09,1.559139728499999933e+00
2.941856236000000000e+09,1.642228698700000100e+00
2.941860236000000000e+09,1.774193525300000074e+00
2.941864236000000000e+09,1.783968686999999997e+00
2.941868236000000000e+09,1.676441764800000067e+00
2.941872236000000000e+09,1.617790794300000057e+00
2.941876236000000000e+09,1.691104650400000020e+00
2.941880228000000000e+09,1.823069476999999994e+00
2.941884220000000000e+09,1.842619800500000071e+00
2.941888212000000000e+09,1.739980459200000107e+00
2.941892212000000000e+09,1.691104650400000020e+00
2.941896212000000000e+09,1.774193525300000074e+00
2.941900220000000000e+09,1.901270771000000082e+00
2.941904220000000000e+09,1.915933513599999971e+00
2.941908236000000000e+09,1.798631429600000109e+00
2.941912240000000000e+09,1.739980459200000107e+00
2.941916228000000000e+09,1.818181896200000036e+00
2.941920228000000000e+09,1.940371513299999906e+00
2.941924236000000000e+09,1.950146675100000060e+00
2.941928236000000000e+09,1.837732219600000105e+00
2.941932240000000000e+09,1.788856267899999963e+00
2.941936236000000000e+09,1.876832866600000038e+00
2.941940236000000000e+09,2.008797645500000062e+00
2.941944228000000000e+09,2.023460388100000173e+00
2.941948228000000000e+09,1.915933513599999971e+00
2.941952240000000000e+09,1.871945285700000072e+00
2.941956240000000000e+09,1.959921836799999983e+00
2.941960240000000000e+09,2.101661682100000039e+00
2.941964236000000000e+09,2.121212005599999895e+00
2.941968236000000000e+09,2.018572807299999994e+00
2.941972240000000000e+09,1.979472160300000061e+00
2.941976236000000000e+09,2.057673454200000140e+00
2.941980236000000000e+09,2.199413537899999938e+00
2.941984236000000000e+09,2.209188699699999869e+00
2.941988236000000000e+09,2.096774101199999851e+00
2.941992228000000000e+09,2.028347968999999917e+00
2.941996220000000000e+09,2.101661682100000039e+00
2.942000220000000000e+09,2.209188699699999869e+00
2.942004212000000000e+09,2.204301118800000125e+00
2.942008204000000000e+09,2.067448616000000072e+00
2.942012196000000000e+09,1.989247321999999984e+00
2.942016196000000000e+09,2.052785873399999961e+00
2.942020196000000000e+09,2.155425310100000047e+00
2.942024204000000000e+09,2.126099824899999824e+00
2.942028208000000000e+09,1.964809417699999949e+00
2.942032204000000000e+09,1.857282543099999961e+00
2.942036212000000000e+09,1.891495609199999928e+00
2.942040212000000000e+09,1.955034255900000018e+00
2.942044216000000000e+09,1.906158351800000039e+00
2.942048212000000000e+09,1.735092878299999919e+00
2.942052212000000000e+09,1.622678375200000023e+00
2.942056220000000000e+09,1.661779022199999956e+00
2.942060220000000000e+09,1.744868040000000065e+00
2.942064212000000000e+09,1.720430135700000029e+00
2.942068212000000000e+09,1.568914985599999978e+00
2.942072212000000000e+09,1.485826015400000033e+00
2.942076212000000000e+09,1.544476985900000043e+00
2.942080220000000000e+09,1.637341117799999912e+00
2.942084228000000000e+09,1.637341117799999912e+00
2.942088244000000000e+09,1.529814243299999932e+00
2.942092240000000000e+09,1.446725368400000100e+00
2.942096236000000000e+09,1.520039081500000000e+00
2.942100228000000000e+09,1.637341117799999912e+00
2.942104236000000000e+09,1.642228698700000100e+00
2.942108236000000000e+09,1.539589405000000077e+00
2.942112228000000000e+09,1.471163272799999922e+00
2.942116236000000000e+09,1.544476985900000043e+00
2.942120236000000000e+09,1.671554183900000101e+00
2.942124240000000000e+09,1.686216926499999991e+00
2.942128240000000000e+09,1.593352890000000022e+00
2.942132236000000000e+09,1.515151500700000042e+00
2.942136236000000000e+09,1.598240470799999979e+00
2.942140228000000000e+09,1.725317716499999987e+00
2.942144240000000000e+09,1.735092878299999919e+00
2.942148236000000000e+09,1.622678375200000023e+00
2.942152236000000000e+09,1.564027404700000012e+00
2.942156236000000000e+09,1.652003860400000024e+00
2.942160228000000000e+09,1.769305944400000108e+00
2.942164228000000000e+09,1.779081106100000031e+00
2.942168236000000000e+09,1.656891441299999990e+00
2.942172236000000000e+09,1.593352890000000022e+00
2.942176228000000000e+09,1.676441764800000067e+00
2.942180236000000000e+09,1.798631429600000109e+00
2.942184240000000000e+09,1.803519058200000025e+00
2.942188236000000000e+09,1.676441764800000067e+00
2.942192240000000000e+09,1.612903213500000099e+00
2.942196244000000000e+09,1.691104650400000020e+00
2.942200240000000000e+09,1.808406638999999982e+00
2.942204228000000000e+09,1.827957057899999960e+00
2.942208228000000000e+09,1.691104650400000020e+00
2.942212228000000000e+09,1.627565956099999989e+00
2.942216236000000000e+09,1.695992231299999986e+00
2.942220236000000000e+09,1.818181896200000036e+00
2.942224240000000000e+09,1.823069476999999994e+00
2.942228228000000000e+09,1.705767393099999918e+00
2.942232236000000000e+09,1.647116279600000066e+00
2.942236240000000000e+09,1.720430135700000029e+00
2.942240236000000000e+09,1.832844638799999926e+00
2.942244240000000000e+09,1.832844638799999926e+00
2.942248240000000000e+09,1.705767393099999918e+00
2.942252236000000000e+09,1.642228698700000100e+00
2.942256236000000000e+09,1.715542554800000064e+00
2.942260244000000000e+09,1.832844638799999926e+00
2.942264240000000000e+09,1.827957057899999960e+00
2.942268236000000000e+09,1.705767393099999918e+00
2.942272236000000000e+09,1.642228698700000100e+00
2.942276236000000000e+09,1.710654973900000098e+00
2.942280236000000000e+09,1.827957057899999960e+00
2.942284236000000000e+09,1.832844638799999926e+00
2.942288240000000000e+09,1.705767393099999918e+00
2.942292236000000000e+09,1.647116279600000066e+00
2.942296240000000000e+09,1.725317716499999987e+00
2.942300240000000000e+09,1.852394962300000003e+00
2.942304240000000000e+09,1.857282543099999961e+00
2.942308240000000000e+09,1.730205297399999953e+00
2.942312236000000000e+09,1.676441764800000067e+00
2.942316236000000000e+09,1.759530782599999954e+00
2.942320236000000000e+09,1.901270771000000082e+00
2.942324236000000000e+09,1.911045932700000005e+00
2.942328236000000000e+09,1.803519058200000025e+00
2.942332236000000000e+09,1.744868040000000065e+00
2.942336228000000000e+09,1.827957057899999960e+00
2.942340232000000000e+09,1.959921836799999983e+00
2.942344236000000000e+09,1.945259094200000094e+00
2.942348228000000000e+09,1.813294315300000070e+00
2.942352240000000000e+09,1.739980459200000107e+00
2.942356236000000000e+09,1.798631429600000109e+00
2.942360240000000000e+09,1.896383190099999894e+00
2.942364236000000000e+09,1.862170123999999927e+00
2.942368236000000000e+09,1.700879812199999952e+00
2.942372228000000000e+09,1.612903213500000099e+00
2.942376236000000000e+09,1.671554183900000101e+00
2.942380236000000000e+09,1.793743848799999929e+00
2.942384236000000000e+09,1.779081106100000031e+00
2.942388236000000000e+09,1.661779022199999956e+00
2.942392236000000000e+09,1.583577728200000090e+00
2.942396236000000000e+09,1.656891441299999990e+00
2.942400236000000000e+09,1.779081106100000031e+00
2.942404236000000000e+09,1.779081106100000031e+00
2.942408236000000000e+09,1.661779022199999956e+00
2.942412236000000000e+09,1.588465309100000056e+00
2.942416236000000000e+09,1.666666602999999913e+00
2.942420228000000000e+09,1.783968686999999997e+00
2.942424236000000000e+09,1.783968686999999997e+00
2.942428228000000000e+09,1.656891441299999990e+00
2.942432228000000000e+09,1.583577728200000090e+00
2.942436236000000000e+09,1.652003860400000024e+00
2.942440228000000000e+09,1.759530782599999954e+00
2.942444228000000000e+09,1.759530782599999954e+00
2.942448228000000000e+09,1.666666602999999913e+00
2.942452220000000000e+09,1.695992231299999986e+00
2.942456228000000000e+09,1.950146675100000060e+00
2.942460236000000000e+09,2.306940317100000026e+00
2.942464236000000000e+09,2.624633312199999846e+00
2.942468236000000000e+09,2.829911994899999783e+00
2.942472240000000000e+09,3.005865097000000041e+00
2.942476220000000000e+09,3.152492761600000026e+00
2.942480228000000000e+09,3.108504295299999942e+00
2.942484220000000000e+09,2.737047910599999856e+00
2.942488220000000000e+09,2.121212005599999895e+00
2.942492220000000000e+09,1.573802566499999944e+00
2.942496220000000000e+09,1.270772218699999900e+00
2.942500216000000000e+09,1.182795639000000065e+00
2.942504216000000000e+09,1.148582577700000051e+00
2.942508216000000000e+09,1.080156440699999942e+00
2.942512200000000000e+09,1.119257092400000042e+00
2.942516196000000000e+09,1.270772218699999900e+00
2.942520204000000000e+09,1.476050853700000109e+00
2.942524204000000000e+09,1.554252147599999967e+00
2.942528212000000000e+09,1.490713596299999999e+00
2.942532220000000000e+09,1.466275691899999956e+00
2.942536228000000000e+09,1.559139728499999933e+00
2.942540236000000000e+09,1.695992231299999986e+00
2.942544240000000000e+09,1.710654973900000098e+00
2.942548236000000000e+09,1.603128051699999945e+00
2.942552236000000000e+09,1.549364566800000009e+00
2.942556236000000000e+09,1.632453536899999946e+00
2.942560236000000000e+09,1.764418363499999920e+00
2.942564240000000000e+09,1.779081106100000031e+00
2.942568236000000000e+09,1.656891441299999990e+00
2.942572236000000000e+09,1.603128051699999945e+00
2.942576236000000000e+09,1.686216926499999991e+00
2.942580236000000000e+09,1.813294315300000070e+00
2.942584236000000000e+09,1.832844638799999926e+00
2.942588240000000000e+09,1.700879812199999952e+00
2.942592228000000000e+09,1.652003860400000024e+00
2.942596212000000000e+09,1.730205297399999953e+00
2.942600212000000000e+09,1.867057704899999893e+00
2.942604204000000000e+09,1.876832866600000038e+00
2.942608204000000000e+09,1.759530782599999954e+00
2.942612204000000000e+09,1.705767393099999918e+00
2.942616204000000000e+09,1.798631429600000109e+00
2.942620212000000000e+09,1.950146675100000060e+00
2.942624216000000000e+09,1.945259094200000094e+00
2.942628212000000000e+09,1.827957057899999960e+00
2.942632212000000000e+09,1.774193525300000074e+00
2.942636220000000000e+09,1.862170123999999927e+00
2.942640216000000000e+09,1.994134902899999950e+00
2.942644204000000000e+09,2.008797645500000062e+00
2.942648196000000000e+09,1.901270771000000082e+00
2.942652196000000000e+09,1.862170123999999927e+00
2.942656200000000000e+09,1.964809417699999949e+00
2.942660196000000000e+09,2.091886520300000107e+00
2.942664180000000000e+09,2.111436843799999963e+00
2.942668200000000000e+09,1.999022483799999916e+00
2.942672196000000000e+09,1.955034255900000018e+00
2.942676196000000000e+09,2.047898292500000217e+00
2.942680196000000000e+09,2.174975633599999902e+00
2.942684200000000000e+09,2.179863214400000082e+00
2.942688204000000000e+09,2.062561035099999884e+00
2.942692200000000000e+09,1.994134902899999950e+00
2.942696196000000000e+09,2.072336196799999808e+00
2.942700196000000000e+09,2.184750795299999826e+00
2.942704196000000000e+09,2.179863214400000082e+00
2.942708204000000000e+09,2.033235549900000105e+00
2.942712204000000000e+09,1.950146675100000060e+00
2.942716212000000000e+09,2.013685226399999806e+00
2.942720212000000000e+09,2.082111358600000184e+00
2.942724212000000000e+09,2.038123130699999841e+00
2.942728212000000000e+09,1.871945285700000072e+00
2.942732212000000000e+09,1.764418363499999920e+00
2.942736220000000000e+09,1.793743848799999929e+00
2.942740228000000000e+09,1.847507381400000037e+00
2.942744228000000000e+09,1.798631429600000109e+00
2.942748236000000000e+09,1.627565956099999989e+00
2.942752236000000000e+09,1.529814243299999932e+00
2.942756236000000000e+09,1.568914985599999978e+00
2.942760236000000000e+09,1.656891441299999990e+00
2.942764236000000000e+09,1.637341117799999912e+00
2.942768236000000000e+09,1.505376338900000110e+00
2.942772244000000000e+09,1.422287368699999943e+00
2.942776240000000000e+09,1.490713596299999999e+00
2.942780236000000000e+09,1.598240470799999979e+00
2.942784228000000000e+09,1.593352890000000022e+00
2.942788220000000000e+09,1.471163272799999922e+00
2.942792228000000000e+09,1.412512207000000020e+00
2.942796228000000000e+09,1.490713596299999999e+00
2.942800228000000000e+09,1.612903213500000099e+00
2.942804236000000000e+09,1.617790794300000057e+00
2.942808236000000000e+09,1.524926662399999966e+00
2.942812236000000000e+09,1.456500530200000032e+00
2.942816220000000000e+09,1.539589405000000077e+00
2.942820212000000000e+09,1.671554183900000101e+00
2.942824220000000000e+09,1.681329345700000033e+00
2.942828228000000000e+09,1.568914985599999978e+00
2.942832236000000000e+09,1.515151500700000042e+00
2.942836240000000000e+09,1.612903213500000099e+00
2.942840236000000000e+09,1.720430135700000029e+00
2.942844236000000000e+09,1.720430135700000029e+00
2.942848236000000000e+09,1.598240470799999979e+00
2.942852228000000000e+09,1.544476985900000043e+00
2.942856224000000000e+09,1.627565956099999989e+00
2.942860228000000000e+09,1.754643201799999996e+00
2.942864228000000000e+09,1.764418363499999920e+00
2.942868236000000000e+09,1.642228698700000100e+00
2.942872236000000000e+09,1.588465309100000056e+00
2.942876236000000000e+09,1.666666602999999913e+00
2.942880236000000000e+09,1.788856267899999963e+00
2.942884236000000000e+09,1.793743848799999929e+00
2.942888236000000000e+09,1.661779022199999956e+00
2.942892236000000000e+09,1.608015632599999911e+00
2.942896228000000000e+09,1.681329345700000033e+00
2.942900236000000000e+09,1.803519058200000025e+00
2.942904220000000000e+09,1.798631429600000109e+00
2.942908228000000000e+09,1.671554183900000101e+00
2.942912236000000000e+09,1.612903213500000099e+00
2.942916240000000000e+09,1.691104650400000020e+00
2.942920236000000000e+09,1.803519058200000025e+00
2.942924236000000000e+09,1.808406638999999982e+00
2.942928228000000000e+09,1.676441764800000067e+00
2.942932236000000000e+09,1.622678375200000023e+00
2.942936240000000000e+09,1.705767393099999918e+00
2.942940236000000000e+09,1.827957057899999960e+00
2.942944228000000000e+09,1.818181896200000036e+00
2.942948236000000000e+09,1.691104650400000020e+00
2.942952236000000000e+09,1.627565956099999989e+00
2.942956236000000000e+09,1.695992231299999986e+00
2.942960236000000000e+09,1.813294315300000070e+00
2.942964236000000000e+09,1.813294315300000070e+00
2.942968236000000000e+09,1.691104650400000020e+00
2.942972236000000000e+09,1.647116279600000066e+00
2.942976240000000000e+09,1.715542554800000064e+00
2.942980236000000000e+09,1.837732219600000105e+00
2.942984244000000000e+09,1.827957057899999960e+00
2.942988236000000000e+09,1.705767393099999918e+00
2.942992236000000000e+09,1.656891441299999990e+00
2.942996236000000000e+09,1.759530782599999954e+00
2.943000236000000000e+09,1.896383190099999894e+00
2.943004236000000000e+09,1.901270771000000082e+00
2.943008228000000000e+09,1.783968686999999997e+00
2.943012220000000000e+09,1.735092878299999919e+00
2.943016220000000000e+09,1.827957057899999960e+00
2.943020220000000000e+09,1.945259094200000094e+00
2.943024212000000000e+09,1.935483837100000049e+00
2.943028220000000000e+09,1.803519058200000025e+00
2.943032212000000000e+09,1.720430135700000029e+00
2.943036212000000000e+09,1.793743848799999929e+00
2.943040220000000000e+09,1.876832866600000038e+00
2.943044228000000000e+09,1.832844638799999926e+00
2.943048236000000000e+09,1.681329345700000033e+00
2.943052236000000000e+09,1.598240470799999979e+00
2.943056228000000000e+09,1.671554183900000101e+00
2.943060236000000000e+09,1.783968686999999997e+00
2.943064236000000000e+09,1.779081106100000031e+00
2.943068228000000000e+09,1.661779022199999956e+00
2.943072228000000000e+09,1.588465309100000056e+00
2.943076228000000000e+09,1.661779022199999956e+00
2.943080228000000000e+09,1.779081106100000031e+00
2.943084228000000000e+09,1.769305944400000108e+00
2.943088228000000000e+09,1.647116279600000066e+00
2.943092236000000000e+09,1.588465309100000056e+00
2.943096236000000000e+09,1.671554183900000101e+00
2.943100236000000000e+09,1.788856267899999963e+00
2.943104236000000000e+09,1.779081106100000031e+00
2.943108228000000000e+09,1.652003860400000024e+00
2.943112220000000000e+09,1.583577728200000090e+00
2.943116220000000000e+09,1.656891441299999990e+00
2.943120228000000000e+09,1.764418363499999920e+00
2.943124236000000000e+09,1.779081106100000031e+00
2.943128236000000000e+09,1.715542554800000064e+00
2.943132240000000000e+09,1.803519058200000025e+00
2.943136236000000000e+09,2.111436843799999963e+00
2.943140236000000000e+09,2.512218952100000013e+00
2.943144236000000000e+09,2.825024414000000039e+00
2.943148236000000000e+09,2.976539611799999818e+00
2.943152236000000000e+09,3.069403648299999787e+00
2.943156236000000000e+09,3.088953971800000087e+00
2.943160228000000000e+09,2.888563156100000029e+00
2.943164236000000000e+09,2.394917011200000001e+00
2.943168236000000000e+09,1.769305944400000108e+00
2.943172236000000000e+09,1.309872865600000047e+00
2.943176232000000000e+09,1.158357739399999975e+00
2.943180232000000000e+09,1.168132901099999899e+00
2.943184236000000000e+09,1.202346086499999966e+00
2.943188232000000000e+09,1.163245320299999941e+00
2.943192232000000000e+09,1.202346086499999966e+00
2.943196228000000000e+09,1.368523955299999928e+00
2.943200236000000000e+09,1.559139728499999933e+00
2.943204236000000000e+09,1.608015632599999911e+00
2.943208236000000000e+09,1.524926662399999966e+00
2.943212240000000000e+09,1.490713596299999999e+00
2.943216236000000000e+09,1.588465309100000056e+00
2.943220236000000000e+09,1.715542554800000064e+00
2.943224240000000000e+09,1.725317716499999987e+00
2.943228240000000000e+09,1.608015632599999911e+00
2.943232236000000000e+09,1.564027404700000012e+00
2.943236228000000000e+09,1.652003860400000024e+00
2.943240220000000000e+09,1.783968686999999997e+00
2.943244204000000000e+09,1.779081106100000031e+00
2.943248204000000000e+09,1.661779022199999956e+00
2.943252212000000000e+09,1.612903213500000099e+00
2.943256220000000000e+09,1.705767393099999918e+00
2.943260228000000000e+09,1.832844638799999926e+00
2.943264236000000000e+09,1.832844638799999926e+00
2.943268240000000000e+09,1.710654973900000098e+00
2.943272236000000000e+09,1.656891441299999990e+00
2.943276240000000000e+09,1.749755620900000030e+00
2.943280228000000000e+09,1.876832866600000038e+00
2.943284236000000000e+09,1.881720447500000004e+00
2.943288228000000000e+09,1.769305944400000108e+00
2.943292228000000000e+09,1.735092878299999919e+00
2.943296228000000000e+09,1.808406638999999982e+00
2.943300220000000000e+09,1.935483837100000049e+00
2.943304228000000000e+09,1.935483837100000049e+00
2.943308236000000000e+09,1.818181896200000036e+00
2.943312236000000000e+09,1.779081106100000031e+00
2.943316236000000000e+09,1.871945285700000072e+00
2.943320240000000000e+09,1.999022483799999916e+00
2.943324228000000000e+09,2.008797645500000062e+00
2.943328212000000000e+09,1.901270771000000082e+00
2.943332212000000000e+09,1.857282543099999961e+00
2.943336224000000000e+09,1.964809417699999949e+00
2.943340228000000000e+09,2.101661682100000039e+00
2.943344236000000000e+09,2.106549262999999783e+00
2.943348240000000000e+09,1.999022483799999916e+00
2.943352236000000000e+09,1.959921836799999983e+00
2.943356236000000000e+09,2.052785873399999961e+00
2.943360236000000000e+09,2.179863214400000082e+00
2.943364236000000000e+09,2.160312890999999791e+00
2.943368232000000000e+09,2.033235549900000105e+00
2.943372232000000000e+09,1.964809417699999949e+00
2.943376236000000000e+09,2.043010711600000029e+00
2.943380228000000000e+09,2.155425310100000047e+00
2.943384236000000000e+09,2.121212005599999895e+00
2.943388240000000000e+09,1.979472160300000061e+00
2.943392236000000000e+09,1.896383190099999894e+00
2.943396236000000000e+09,1.950146675100000060e+00
2.943400236000000000e+09,2.023460388100000173e+00
2.943404236000000000e+09,1.969696998499999907e+00
2.943408236000000000e+09,1.798631429600000109e+00
2.943412244000000000e+09,1.691104650400000020e+00
2.943416236000000000e+09,1.720430135700000029e+00
2.943420236000000000e+09,1.803519058200000025e+00
2.943424236000000000e+09,1.730205297399999953e+00
2.943428236000000000e+09,1.568914985599999978e+00
2.943432240000000000e+09,1.480938434600000075e+00
2.943436236000000000e+09,1.529814243299999932e+00
2.943440236000000000e+09,1.632453536899999946e+00
2.943444236000000000e+09,1.598240470799999979e+00
2.943448236000000000e+09,1.466275691899999956e+00
2.943452236000000000e+09,1.392961864399999916e+00
2.943456236000000000e+09,1.461388111099999998e+00
2.943460244000000000e+09,1.573802566499999944e+00
2.943464244000000000e+09,1.564027404700000012e+00
2.943468236000000000e+09,1.446725368400000100e+00
2.943472236000000000e+09,1.392961864399999916e+00
2.943476240000000000e+09,1.485826015400000033e+00
2.943480240000000000e+09,1.622678375200000023e+00
2.943484244000000000e+09,1.617790794300000057e+00
2.943488244000000000e+09,1.505376338900000110e+00
2.943492236000000000e+09,1.461388111099999998e+00
2.943496244000000000e+09,1.539589405000000077e+00
2.943500228000000000e+09,1.661779022199999956e+00
2.943504236000000000e+09,1.666666602999999913e+00
2.943508236000000000e+09,1.554252147599999967e+00
2.943512236000000000e+09,1.510263919800000076e+00
2.943516236000000000e+09,1.608015632599999911e+00
2.943520236000000000e+09,1.715542554800000064e+00
2.943524240000000000e+09,1.710654973900000098e+00
2.943528236000000000e+09,1.578690147299999902e+00
2.943532236000000000e+09,1.534701824099999889e+00
2.943536236000000000e+09,1.627565956099999989e+00
2.943540244000000000e+09,1.744868040000000065e+00
2.943544228000000000e+09,1.744868040000000065e+00
2.943548220000000000e+09,1.622678375200000023e+00
2.943552228000000000e+09,1.573802566499999944e+00
2.943556228000000000e+09,1.661779022199999956e+00
2.943560228000000000e+09,1.779081106100000031e+00
2.943564228000000000e+09,1.779081106100000031e+00
2.943568228000000000e+09,1.647116279600000066e+00
2.943572236000000000e+09,1.598240470799999979e+00
2.943576236000000000e+09,1.695992231299999986e+00
2.943580236000000000e+09,1.803519058200000025e+00
2.943584228000000000e+09,1.798631429600000109e+00
2.943588236000000000e+09,1.647116279600000066e+00
2.943592236000000000e+09,1.588465309100000056e+00
2.943596236000000000e+09,1.666666602999999913e+00
2.943600236000000000e+09,1.783968686999999997e+00
2.943604236000000000e+09,1.769305944400000108e+00
2.943608236000000000e+09,1.642228698700000100e+00
2.943612240000000000e+09,1.593352890000000022e+00
2.943616236000000000e+09,1.681329345700000033e+00
2.943620236000000000e+09,1.803519058200000025e+00
2.943624236000000000e+09,1.798631429600000109e+00
2.943628236000000000e+09,1.676441764800000067e+00
2.943632236000000000e+09,1.617790794300000057e+00
2.943636240000000000e+09,1.700879812199999952e+00
2.943640236000000000e+09,1.818181896200000036e+00
2.943644236000000000e+09,1.823069476999999994e+00
2.943648236000000000e+09,1.710654973900000098e+00
2.943652236000000000e+09,1.681329345700000033e+00
2.943656244000000000e+09,1.798631429600000109e+00
2.943660248000000000e+09,1.915933513599999971e+00
2.943664256000000000e+09,1.915933513599999971e+00
2.943668260000000000e+09,1.788856267899999963e+00
2.943672252000000000e+09,1.735092878299999919e+00
2.943676244000000000e+09,1.813294315300000070e+00
2.943680244000000000e+09,1.915933513599999971e+00
2.943684256000000000e+09,1.886608028399999970e+00
2.943688236000000000e+09,1.735092878299999919e+00
2.943692236000000000e+09,1.656891441299999990e+00
2.943696236000000000e+09,1.705767393099999918e+00
2.943700236000000000e+09,1.793743848799999929e+00
2.943704236000000000e+09,1.754643201799999996e+00
2.943708236000000000e+09,1.617790794300000057e+00
2.943712228000000000e+09,1.549364566800000009e+00
2.943716236000000000e+09,1.627565956099999989e+00
2.943720240000000000e+09,1.739980459200000107e+00
2.943724236000000000e+09,1.730205297399999953e+00
2.943728236000000000e+09,1.612903213500000099e+00
2.943732244000000000e+09,1.573802566499999944e+00
2.943736236000000000e+09,1.647116279600000066e+00
2.943740244000000000e+09,1.759530782599999954e+00
2.943744240000000000e+09,1.744868040000000065e+00
2.943748220000000000e+09,1.617790794300000057e+00
2.943752220000000000e+09,1.564027404700000012e+00
2.943756204000000000e+09,1.652003860400000024e+00
2.943760196000000000e+09,1.769305944400000108e+00
2.943764196000000000e+09,1.759530782599999954e+00
2.943768196000000000e+09,1.622678375200000023e+00
2.943772212000000000e+09,1.559139728499999933e+00
2.943776220000000000e+09,1.666666602999999913e+00
2.943780220000000000e+09,1.852394962300000003e+00
2.943784232000000000e+09,1.994134902899999950e+00
2.943788236000000000e+09,2.116324424700000151e+00
2.943792236000000000e+09,2.375366687700000146e+00
2.943796244000000000e+09,2.795698881099999866e+00
2.943800236000000000e+09,3.196480989399999917e+00
2.943804236000000000e+09,3.323558092099999861e+00
2.943808236000000000e+09,3.103616714400000198e+00
2.943812236000000000e+09,2.737047910599999856e+00
2.943816236000000000e+09,2.321603059700000138e+00
2.943820236000000000e+09,1.901270771000000082e+00
2.943824228000000000e+09,1.500488757999999923e+00
2.943828216000000000e+09,1.173020482000000086e+00
2.943832200000000000e+09,1.041055679300000092e+00
2.943836184000000000e+09,1.133919834999999932e+00
2.943840180000000000e+09,1.314760565700000106e+00
2.943844180000000000e+09,1.407624626100000054e+00
2.943848180000000000e+09,1.388074283499999950e+00
2.943852180000000000e+09,1.407624626100000054e+00
2.943856180000000000e+09,1.529814243299999932e+00
2.943860196000000000e+09,1.671554183900000101e+00
2.943864204000000000e+09,1.691104650400000020e+00
2.943868204000000000e+09,1.583577728200000090e+00
2.943872212000000000e+09,1.544476985900000043e+00
2.943876212000000000e+09,1.632453536899999946e+00
2.943880220000000000e+09,1.764418363499999920e+00
2.943884220000000000e+09,1.779081106100000031e+00
2.943888220000000000e+09,1.656891441299999990e+00
2.943892228000000000e+09,1.617790794300000057e+00
2.943896228000000000e+09,1.715542554800000064e+00
2.943900236000000000e+09,1.842619800500000071e+00
2.943904236000000000e+09,1.837732219600000105e+00
2.943908240000000000e+09,1.715542554800000064e+00
2.943912240000000000e+09,1.671554183900000101e+00
2.943916236000000000e+09,1.764418363499999920e+00
2.943920236000000000e+09,1.886608028399999970e+00
2.943924236000000000e+09,1.886608028399999970e+00
2.943928220000000000e+09,1.774193525300000074e+00
2.943932236000000000e+09,1.725317716499999987e+00
2.943936240000000000e+09,1.823069476999999994e+00
2.943940236000000000e+09,1.940371513299999906e+00
2.943944240000000000e+09,1.940371513299999906e+00
2.943948236000000000e+09,1.818181896200000036e+00
2.943952236000000000e+09,1.774193525300000074e+00
2.943956244000000000e+09,1.876832866600000038e+00
2.943960244000000000e+09,2.003910064599999874e+00
2.943964228000000000e+09,2.003910064599999874e+00
2.943968204000000000e+09,1.896383190099999894e+00
2.943972212000000000e+09,1.862170123999999927e+00
2.943976212000000000e+09,1.959921836799999983e+00
2.943980220000000000e+09,2.096774101199999851e+00
2.943984220000000000e+09,2.091886520300000107e+00
2.943988216000000000e+09,1.984359741200000027e+00
2.943992228000000000e+09,1.950146675100000060e+00
2.943996236000000000e+09,2.052785873399999961e+00
2.944000236000000000e+09,2.184750795299999826e+00
2.944004236000000000e+09,2.179863214400000082e+00
2.944008240000000000e+09,2.057673454200000140e+00
2.944012236000000000e+09,2.023460388100000173e+00
2.944016228000000000e+09,2.101661682100000039e+00
2.944020228000000000e+09,2.214076280500000049e+00
2.944024220000000000e+09,2.189638376200000014e+00
2.944028228000000000e+09,2.047898292500000217e+00
2.944032224000000000e+09,1.984359741200000027e+00
2.944036228000000000e+09,2.062561035099999884e+00
2.944040228000000000e+09,2.165200471799999971e+00
2.944044228000000000e+09,2.111436843799999963e+00
2.944048228000000000e+09,1.950146675100000060e+00
2.944052220000000000e+09,1.857282543099999961e+00
2.944056228000000000e+09,1.896383190099999894e+00
2.944060228000000000e+09,1.950146675100000060e+00
2.944064236000000000e+09,1.881720447500000004e+00
2.944068236000000000e+09,1.710654973900000098e+00
2.944072236000000000e+09,1.608015632599999911e+00
2.944076236000000000e+09,1.642228698700000100e+00
2.944080236000000000e+09,1.730205297399999953e+00
2.944084236000000000e+09,1.671554183900000101e+00
2.944088236000000000e+09,1.524926662399999966e+00
2.944092236000000000e+09,1.451612949300000066e+00
2.944096236000000000e+09,1.520039081500000000e+00
2.944100220000000000e+09,1.617790794300000057e+00
2.944104220000000000e+09,1.603128051699999945e+00
2.944108220000000000e+09,1.476050853700000109e+00
2.944112220000000000e+09,1.422287368699999943e+00
2.944116228000000000e+09,1.510263919800000076e+00
2.944120228000000000e+09,1.622678375200000023e+00
2.944124236000000000e+09,1.612903213500000099e+00
2.944128240000000000e+09,1.490713596299999999e+00
2.944132236000000000e+09,1.441837787599999920e+00
2.944136240000000000e+09,1.539589405000000077e+00
2.944140228000000000e+09,1.666666602999999913e+00
2.944144228000000000e+09,1.666666602999999913e+00
2.944148220000000000e+09,1.554252147599999967e+00
2.944152228000000000e+09,1.505376338900000110e+00
2.944156228000000000e+09,1.608015632599999911e+00
2.944160228000000000e+09,1.715542554800000064e+00
2.944164236000000000e+09,1.715542554800000064e+00
2.944168240000000000e+09,1.612903213500000099e+00
2.944172236000000000e+09,1.559139728499999933e+00
2.944176236000000000e+09,1.652003860400000024e+00
2.944180220000000000e+09,1.774193525300000074e+00
2.944184228000000000e+09,1.764418363499999920e+00
2.944188236000000000e+09,1.642228698700000100e+00
2.944192236000000000e+09,1.598240470799999979e+00
2.944196228000000000e+09,1.695992231299999986e+00
2.944200236000000000e+09,1.808406638999999982e+00
2.944204220000000000e+09,1.808406638999999982e+00
2.944208212000000000e+09,1.666666602999999913e+00
2.944212204000000000e+09,1.627565956099999989e+00
2.944216212000000000e+09,1.700879812199999952e+00
2.944220204000000000e+09,1.837732219600000105e+00
2.944224204000000000e+09,1.808406638999999982e+00
2.944228196000000000e+09,1.691104650400000020e+00
2.944232196000000000e+09,1.652003860400000024e+00
2.944236180000000000e+09,1.759530782599999954e+00
2.944240180000000000e+09,1.891495609199999928e+00
2.944244184000000000e+09,1.896383190099999894e+00
2.944248180000000000e+09,1.783968686999999997e+00
2.944252184000000000e+09,1.744868040000000065e+00
2.944256168000000000e+09,1.847507381400000037e+00
2.944260160000000000e+09,1.964809417699999949e+00
2.944264152000000000e+09,1.969696998499999907e+00
2.944268152000000000e+09,1.837732219600000105e+00
2.944272156000000000e+09,1.793743848799999929e+00
2.944276164000000000e+09,1.891495609199999928e+00
2.944280164000000000e+09,2.003910064599999874e+00
2.944284148000000000e+09,2.003910064599999874e+00
2.944288136000000000e+09,1.871945285700000072e+00
2.944292136000000000e+09,1.842619800500000071e+00
2.944296128000000000e+09,1.940371513299999906e+00
2.944300124000000000e+09,2.072336196799999808e+00
2.944304116000000000e+09,2.067448616000000072e+00
2.944308112000000000e+09,1.955034255900000018e+00
2.944312112000000000e+09,1.906158351800000039e+00
2.944316112000000000e+09,1.999022483799999916e+00
2.944320108000000000e+09,2.121212005599999895e+00
2.944324108000000000e+09,2.077223777699999996e+00
2.944328112000000000e+09,1.940371513299999906e+00
2.944332120000000000e+09,1.862170123999999927e+00
2.944336120000000000e+09,1.930596256200000083e+00
2.944340116000000000e+09,2.033235549900000105e+00
2.944344116000000000e+09,1.974584579400000095e+00
2.944348108000000000e+09,1.818181896200000036e+00
2.944352116000000000e+09,1.735092878299999919e+00
2.944356120000000000e+09,1.803519058200000025e+00
2.944360112000000000e+09,1.901270771000000082e+00
2.944364104000000000e+09,1.886608028399999970e+00
2.944368092000000000e+09,1.754643201799999996e+00
2.944372096000000000e+09,1.700879812199999952e+00
2.944376096000000000e+09,1.788856267899999963e+00
2.944380092000000000e+09,1.891495609199999928e+00
2.944384088000000000e+09,1.886608028399999970e+00
2.944388072000000000e+09,1.744868040000000065e+00
2.944392056000000000e+09,1.686216926499999991e+00
2.944396060000000000e+09,1.769305944400000108e+00
2.944400060000000000e+09,1.886608028399999970e+00
2.944404052000000000e+09,1.876832866600000038e+00
2.944408064000000000e+09,1.749755620900000030e+00
2.944412064000000000e+09,1.686216926499999991e+00
2.944416068000000000e+09,1.754643201799999996e+00
2.944420068000000000e+09,1.876832866600000038e+00
2.944424068000000000e+09,1.911045932700000005e+00
2.944428076000000000e+09,1.896383190099999894e+00
2.944432068000000000e+09,2.038123130699999841e+00
2.944436068000000000e+09,2.399804592100000189e+00
2.944440068000000000e+09,2.839687156600000151e+00
2.944444068000000000e+09,3.137830018899999907e+00
2.944448068000000000e+09,3.220918893799999960e+00
2.944452068000000000e+09,3.176930665900000061e+00
2.944456068000000000e+09,3.015640258699999965e+00
2.944460060000000000e+09,2.688172101900000222e+00
2.944464060000000000e+09,2.135874986600000192e+00
2.944468052000000000e+09,1.573802566499999944e+00
2.944472052000000000e+09,1.207233667299999924e+00
2.944476048000000000e+09,1.133919834999999932e+00
2.944480052000000000e+09,1.236559152599999933e+00
2.944484060000000000e+09,1.304985284800000089e+00
2.944488060000000000e+09,1.290322542099999970e+00
2.944492060000000000e+09,1.334310889199999961e+00
2.944496064000000000e+09,1.490713596299999999e+00
2.944500060000000000e+09,1.656891441299999990e+00
2.944504072000000000e+09,1.691104650400000020e+00
2.944508076000000000e+09,1.603128051699999945e+00
2.944512068000000000e+09,1.573802566499999944e+00
2.944516060000000000e+09,1.676441764800000067e+00
2.944520068000000000e+09,1.813294315300000070e+00
2.944524080000000000e+09,1.808406638999999982e+00
2.944528064000000000e+09,1.705767393099999918e+00
2.944532068000000000e+09,1.661779022199999956e+00
2.944536068000000000e+09,1.754643201799999996e+00
2.944540072000000000e+09,1.871945285700000072e+00
2.944544080000000000e+09,1.871945285700000072e+00
2.944548080000000000e+09,1.749755620900000030e+00
2.944552080000000000e+09,1.700879812199999952e+00
2.944556068000000000e+09,1.798631429600000109e+00
2.944560060000000000e+09,1.915933513599999971e+00
2.944564068000000000e+09,1.911045932700000005e+00
2.944568072000000000e+09,1.808406638999999982e+00
2.944572056000000000e+09,1.749755620900000030e+00
2.944576056000000000e+09,1.847507381400000037e+00
2.944580052000000000e+09,1.969696998499999907e+00
2.944584056000000000e+09,1.969696998499999907e+00
2.944588056000000000e+09,1.847507381400000037e+00
2.944592056000000000e+09,1.808406638999999982e+00
2.944596040000000000e+09,1.906158351800000039e+00
2.944600028000000000e+09,2.033235549900000105e+00
2.944604028000000000e+09,2.028347968999999917e+00
2.944608020000000000e+09,1.911045932700000005e+00
2.944612024000000000e+09,1.871945285700000072e+00
2.944616032000000000e+09,1.974584579400000095e+00
2.944620028000000000e+09,2.106549262999999783e+00
2.944624028000000000e+09,2.106549262999999783e+00
2.944628032000000000e+09,1.989247321999999984e+00
2.944632032000000000e+09,1.950146675100000060e+00
2.944636036000000000e+09,2.067448616000000072e+00
2.944640036000000000e+09,2.209188699699999869e+00
2.944644028000000000e+09,2.214076280500000049e+00
2.944648020000000000e+09,2.106549262999999783e+00
2.944652020000000000e+09,2.062561035099999884e+00
2.944656012000000000e+09,2.155425310100000047e+00
2.944660012000000000e+09,2.272727251000000059e+00
2.944664012000000000e+09,2.253176927500000204e+00
2.944668020000000000e+09,2.121212005599999895e+00
2.944672020000000000e+09,2.062561035099999884e+00
2.944676020000000000e+09,2.145650148300000115e+00
2.944680012000000000e+09,2.248289346600000016e+00
2.944684004000000000e+09,2.218963861399999793e+00
2.944688004000000000e+09,2.067448616000000072e+00
2.944692000000000000e+09,1.974584579400000095e+00
2.944695996000000000e+09,2.033235549900000105e+00
2.944699996000000000e+09,2.096774101199999851e+00
2.944703988000000000e+09,2.038123130699999841e+00
2.944707992000000000e+09,1.857282543099999961e+00
2.944712000000000000e+09,1.749755620900000030e+00
2.944715996000000000e+09,1.779081106100000031e+00
2.944720000000000000e+09,1.842619800500000071e+00
2.944723988000000000e+09,1.793743848799999929e+00
2.944727988000000000e+09,1.632453536899999946e+00
2.944731996000000000e+09,1.554252147599999967e+00
2.944736004000000000e+09,1.617790794300000057e+00
2.944740004000000000e+09,1.695992231299999986e+00
2.944744012000000000e+09,1.666666602999999913e+00
2.944748012000000000e+09,1.529814243299999932e+00
2.944752024000000000e+09,1.471163272799999922e+00
2.944756028000000000e+09,1.544476985900000043e+00
2.944760028000000000e+09,1.656891441299999990e+00
2.944764036000000000e+09,1.647116279600000066e+00
2.944768048000000000e+09,1.524926662399999966e+00
2.944772048000000000e+09,1.476050853700000109e+00
2.944776036000000000e+09,1.568914985599999978e+00
2.944780040000000000e+09,1.686216926499999991e+00
2.944784048000000000e+09,1.681329345700000033e+00
2.944788052000000000e+09,1.564027404700000012e+00
2.944792052000000000e+09,1.515151500700000042e+00
2.944796056000000000e+09,1.608015632599999911e+00
2.944800056000000000e+09,1.739980459200000107e+00
2.944804056000000000e+09,1.725317716499999987e+00
2.944808060000000000e+09,1.608015632599999911e+00
2.944812060000000000e+09,1.568914985599999978e+00
2.944816060000000000e+09,1.666666602999999913e+00
2.944820052000000000e+09,1.783968686999999997e+00
2.944824052000000000e+09,1.774193525300000074e+00
2.944828060000000000e+09,1.647116279600000066e+00
2.944832068000000000e+09,1.598240470799999979e+00
2.944836060000000000e+09,1.695992231299999986e+00
2.944840072000000000e+09,1.818181896200000036e+00
2.944844076000000000e+09,1.798631429600000109e+00
2.944848088000000000e+09,1.671554183900000101e+00
2.944852096000000000e+09,1.622678375200000023e+00
2.944856100000000000e+09,1.705767393099999918e+00
2.944860092000000000e+09,1.823069476999999994e+00
2.944864084000000000e+09,1.803519058200000025e+00
2.944868084000000000e+09,1.676441764800000067e+00
2.944872092000000000e+09,1.632453536899999946e+00
2.944876104000000000e+09,1.715542554800000064e+00
2.944880112000000000e+09,1.837732219600000105e+00
2.944884120000000000e+09,1.827957057899999960e+00
2.944888120000000000e+09,1.691104650400000020e+00
2.944892108000000000e+09,1.642228698700000100e+00
2.944896112000000000e+09,1.725317716499999987e+00
2.944900124000000000e+09,1.832844638799999926e+00
2.944904124000000000e+09,1.823069476999999994e+00
2.944908116000000000e+09,1.695992231299999986e+00
2.944912128000000000e+09,1.652003860400000024e+00
2.944916120000000000e+09,1.744868040000000065e+00
2.944920112000000000e+09,1.857282543099999961e+00
2.944924120000000000e+09,1.857282543099999961e+00
2.944928128000000000e+09,1.715542554800000064e+00
2.944932136000000000e+09,1.671554183900000101e+00
2.944936140000000000e+09,1.783968686999999997e+00
2.944940136000000000e+09,1.901270771000000082e+00
2.944944120000000000e+09,1.906158351800000039e+00
2.944948116000000000e+09,1.788856267899999963e+00
2.944952128000000000e+09,1.749755620900000030e+00
2.944956128000000000e+09,1.837732219600000105e+00
2.944960136000000000e+09,1.950146675100000060e+00
2.944964140000000000e+09,1.940371513299999906e+00
2.944968144000000000e+09,1.803519058200000025e+00
2.944972136000000000e+09,1.744868040000000065e+00
2.944976124000000000e+09,1.818181896200000036e+00
2.944980132000000000e+09,1.911045932700000005e+00
2.944984136000000000e+09,1.886608028399999970e+00
2.944988116000000000e+09,1.720430135700000029e+00
2.944992116000000000e+09,1.642228698700000100e+00
2.944996120000000000e+09,1.710654973900000098e+00
2.945000120000000000e+09,1.808406638999999982e+00
2.945004108000000000e+09,1.783968686999999997e+00
2.945008108000000000e+09,1.652003860400000024e+00
2.945012104000000000e+09,1.593352890000000022e+00
2.945016100000000000e+09,1.676441764800000067e+00
2.945020108000000000e+09,1.798631429600000109e+00
2.945024108000000000e+09,1.774193525300000074e+00
2.945028116000000000e+09,1.642228698700000100e+00
2.945032120000000000e+09,1.593352890000000022e+00
2.945036116000000000e+09,1.681329345700000033e+00
2.945040124000000000e+09,1.788856267899999963e+00
2.945044124000000000e+09,1.769305944400000108e+00
2.945048124000000000e+09,1.642228698700000100e+00
2.945052136000000000e+09,1.612903213500000099e+00
2.945056144000000000e+09,1.686216926499999991e+00
2.945060148000000000e+09,1.788856267899999963e+00
2.945064148000000000e+09,1.759530782599999954e+00
2.945068140000000000e+09,1.642228698700000100e+00
2.945072148000000000e+09,1.647116279600000066e+00
2.945076152000000000e+09,1.857282543099999961e+00
2.945080156000000000e+09,2.170088052700000159e+00
2.945084148000000000e+09,2.429130077299999968e+00
2.945088152000000000e+09,2.624633312199999846e+00
2.945092160000000000e+09,2.869012641899999938e+00
2.945096156000000000e+09,3.142717599800000094e+00
2.945100156000000000e+09,3.225806474600000140e+00
2.945104160000000000e+09,2.956989288299999963e+00
2.945108156000000000e+09,2.414467334699999856e+00
2.945112160000000000e+09,1.871945285700000072e+00
2.945116164000000000e+09,1.490713596299999999e+00
2.945120156000000000e+09,1.300097703899999901e+00
2.945124136000000000e+09,1.168132901099999899e+00
2.945128136000000000e+09,1.075268864599999930e+00
2.945132136000000000e+09,1.089931602400000088e+00
2.945136132000000000e+09,1.270772218699999900e+00
2.945140136000000000e+09,1.480938434600000075e+00
2.945144132000000000e+09,1.564027404700000012e+00
2.945148132000000000e+09,1.515151500700000042e+00
2.945152136000000000e+09,1.495601177199999965e+00
2.945156140000000000e+09,1.622678375200000023e+00
2.945160144000000000e+09,1.749755620900000030e+00
2.945164144000000000e+09,1.749755620900000030e+00
2.945168140000000000e+09,1.637341117799999912e+00
2.945172148000000000e+09,1.603128051699999945e+00
2.945176148000000000e+09,1.705767393099999918e+00
2.945180152000000000e+09,1.827957057899999960e+00
2.945184152000000000e+09,1.818181896200000036e+00
2.945188156000000000e+09,1.695992231299999986e+00
2.945192168000000000e+09,1.652003860400000024e+00
2.945196148000000000e+09,1.754643201799999996e+00
2.945200156000000000e+09,1.871945285700000072e+00
2.945204160000000000e+09,1.862170123999999927e+00
2.945208160000000000e+09,1.749755620900000030e+00
2.945212156000000000e+09,1.695992231299999986e+00
2.945216164000000000e+09,1.803519058200000025e+00
2.945220168000000000e+09,1.920821094499999937e+00
2.945224156000000000e+09,1.911045932700000005e+00
2.945228164000000000e+09,1.803519058200000025e+00
2.945232156000000000e+09,1.754643201799999996e+00
2.945236160000000000e+09,1.862170123999999927e+00
2.945240152000000000e+09,1.979472160300000061e+00
2.945244144000000000e+09,1.974584579400000095e+00
2.945248148000000000e+09,1.852394962300000003e+00
2.945252156000000000e+09,1.813294315300000070e+00
2.945256164000000000e+09,1.915933513599999971e+00
2.945260172000000000e+09,2.038123130699999841e+00
2.945264172000000000e+09,2.028347968999999917e+00
2.945268168000000000e+09,1.925708675299999895e+00
2.945272168000000000e+09,1.886608028399999970e+00
2.945276156000000000e+09,2.003910064599999874e+00
2.945280140000000000e+09,2.126099824899999824e+00
2.945284140000000000e+09,2.121212005599999895e+00
2.945288132000000000e+09,2.003910064599999874e+00
2.945292120000000000e+09,1.969696998499999907e+00
2.945296116000000000e+09,2.077223777699999996e+00
2.945300116000000000e+09,2.204301118800000125e+00
2.945304116000000000e+09,2.184750795299999826e+00
2.945308116000000000e+09,2.062561035099999884e+00
2.945312108000000000e+09,2.013685226399999806e+00
2.945316108000000000e+09,2.101661682100000039e+00
2.945320116000000000e+09,2.218963861399999793e+00
2.945324116000000000e+09,2.170088052700000159e+00
2.945328100000000000e+09,2.023460388100000173e+00
2.945332096000000000e+09,1.955034255900000018e+00
2.945336092000000000e+09,2.033235549900000105e+00
2.945340092000000000e+09,2.111436843799999963e+00
2.945344100000000000e+09,2.057673454200000140e+00
2.945348100000000000e+09,1.886608028399999970e+00
2.945352092000000000e+09,1.798631429600000109e+00
2.945356096000000000e+09,1.842619800500000071e+00
2.945360092000000000e+09,1.891495609199999928e+00
2.945364096000000000e+09,1.823069476999999994e+00
2.945368084000000000e+09,1.656891441299999990e+00
2.945372084000000000e+09,1.568914985599999978e+00
2.945376096000000000e+09,1.622678375200000023e+00
2.945380100000000000e+09,1.705767393099999918e+00
2.945384100000000000e+09,1.666666602999999913e+00
2.945388100000000000e+09,1.524926662399999966e+00
2.945392108000000000e+09,1.461388111099999998e+00
2.945396116000000000e+09,1.544476985900000043e+00
2.945400116000000000e+09,1.642228698700000100e+00
2.945404128000000000e+09,1.622678375200000023e+00
2.945408132000000000e+09,1.505376338900000110e+00
2.945412132000000000e+09,1.451612949300000066e+00
2.945416132000000000e+09,1.549364566800000009e+00
2.945420140000000000e+09,1.656891441299999990e+00
2.945424152000000000e+09,1.652003860400000024e+00
2.945428140000000000e+09,1.534701824099999889e+00
2.945432144000000000e+09,1.490713596299999999e+00
2.945436140000000000e+09,1.588465309100000056e+00
2.945440144000000000e+09,1.700879812199999952e+00
2.945444140000000000e+09,1.691104650400000020e+00
2.945448132000000000e+09,1.573802566499999944e+00
2.945452132000000000e+09,1.539589405000000077e+00
2.945456116000000000e+09,1.637341117799999912e+00
2.945460124000000000e+09,1.754643201799999996e+00
2.945464128000000000e+09,1.749755620900000030e+00
2.945468128000000000e+09,1.622678375200000023e+00
2.945472132000000000e+09,1.583577728200000090e+00
2.945476144000000000e+09,1.681329345700000033e+00
2.945480148000000000e+09,1.803519058200000025e+00
2.945484140000000000e+09,1.788856267899999963e+00
2.945488140000000000e+09,1.666666602999999913e+00
2.945492144000000000e+09,1.622678375200000023e+00
2.945496148000000000e+09,1.720430135700000029e+00
2.945500144000000000e+09,1.827957057899999960e+00
2.945504140000000000e+09,1.813294315300000070e+00
2.945508148000000000e+09,1.681329345700000033e+00
2.945512164000000000e+09,1.632453536899999946e+00
2.945516176000000000e+09,1.725317716499999987e+00
2.945520184000000000e+09,1.847507381400000037e+00
2.945524180000000000e+09,1.803519058200000025e+00
2.945528172000000000e+09,1.666666602999999913e+00
2.945532164000000000e+09,1.627565956099999989e+00
2.945536176000000000e+09,1.725317716499999987e+00
2.945540180000000000e+09,1.852394962300000003e+00
2.945544180000000000e+09,1.818181896200000036e+00
2.945548196000000000e+09,1.686216926499999991e+00
2.945552204000000000e+09,1.656891441299999990e+00
2.945556212000000000e+09,1.739980459200000107e+00
2.945560212000000000e+09,1.842619800500000071e+00
2.945564204000000000e+09,1.803519058200000025e+00
2.945568196000000000e+09,1.671554183900000101e+00
2.945572204000000000e+09,1.622678375200000023e+00
2.945576212000000000e+09,1.720430135700000029e+00
2.945580212000000000e+09,1.827957057899999960e+00
2.945584204000000000e+09,1.798631429600000109e+00
2.945588204000000000e+09,1.666666602999999913e+00
2.945592196000000000e+09,1.622678375200000023e+00
2.945596204000000000e+09,1.720430135700000029e+00
2.945600204000000000e+09,1.837732219600000105e+00
2.945604212000000000e+09,1.798631429600000109e+00
2.945608212000000000e+09,1.671554183900000101e+00
2.945612220000000000e+09,1.647116279600000066e+00
2.945616228000000000e+09,1.754643201799999996e+00
2.945620228000000000e+09,1.881720447500000004e+00
2.945624236000000000e+09,1.871945285700000072e+00
2.945628236000000000e+09,1.759530782599999954e+00
2.945632228000000000e+09,1.739980459200000107e+00
2.945636228000000000e+09,1.837732219600000105e+00
2.945640236000000000e+09,1.950146675100000060e+00
2.945644236000000000e+09,1.920821094499999937e+00
2.945648236000000000e+09,1.783968686999999997e+00
2.945652236000000000e+09,1.749755620900000030e+00
2.945656236000000000e+09,1.823069476999999994e+00
2.945660228000000000e+09,1.906158351800000039e+00
2.945664228000000000e+09,1.842619800500000071e+00
2.945668220000000000e+09,1.681329345700000033e+00
2.945672236000000000e+09,1.612903213500000099e+00
2.945676236000000000e+09,1.695992231299999986e+00
2.945680236000000000e+09,1.798631429600000109e+00
2.945684236000000000e+09,1.764418363499999920e+00
2.945688236000000000e+09,1.632453536899999946e+00
2.945692240000000000e+09,1.593352890000000022e+00
2.945696228000000000e+09,1.676441764800000067e+00
2.945700236000000000e+09,1.788856267899999963e+00
2.945704236000000000e+09,1.759530782599999954e+00
2.945708236000000000e+09,1.632453536899999946e+00
2.945712236000000000e+09,1.588465309100000056e+00
2.945716236000000000e+09,1.686216926499999991e+00
2.945720236000000000e+09,1.803519058200000025e+00
2.945724228000000000e+09,1.764418363499999920e+00
2.945728236000000000e+09,1.642228698700000100e+00
2.945732236000000000e+09,1.598240470799999979e+00
2.945736228000000000e+09,1.695992231299999986e+00
2.945740236000000000e+09,1.793743848799999929e+00
2.945744236000000000e+09,1.764418363499999920e+00
2.945748236000000000e+09,1.666666602999999913e+00
2.945752240000000000e+09,1.715542554800000064e+00
2.945756236000000000e+09,1.989247321999999984e+00
2.945760228000000000e+09,2.355816125800000105e+00
2.945764236000000000e+09,2.663734197600000186e+00
2.945768240000000000e+09,2.873900222700000118e+00
2.945772236000000000e+09,3.088953971800000087e+00
2.945776228000000000e+09,3.269794702500000039e+00
2.945780228000000000e+09,3.206256151099999840e+00
2.945784236000000000e+09,2.800586509700000004e+00
2.945788228000000000e+09,2.170088052700000159e+00
2.945792220000000000e+09,1.637341117799999912e+00
2.945796228000000000e+09,1.358748793600000004e+00
2.945800236000000000e+09,1.275659799500000080e+00
2.945804232000000000e+09,1.217008829100000078e+00
2.945808224000000000e+09,1.143694996800000085e+00
2.945812224000000000e+09,1.187683343800000069e+00
2.945816236000000000e+09,1.368523955299999928e+00
2.945820236000000000e+09,1.554252147599999967e+00
2.945824240000000000e+09,1.593352890000000022e+00
2.945828236000000000e+09,1.510263919800000076e+00
2.945832236000000000e+09,1.505376338900000110e+00
2.945836236000000000e+09,1.622678375200000023e+00
2.945840236000000000e+09,1.744868040000000065e+00
2.945844220000000000e+09,1.730205297399999953e+00
2.945848220000000000e+09,1.612903213500000099e+00
2.945852228000000000e+09,1.583577728200000090e+00
2.945856236000000000e+09,1.700879812199999952e+00
2.945860228000000000e+09,1.818181896200000036e+00
2.945864236000000000e+09,1.803519058200000025e+00
2.945868228000000000e+09,1.681329345700000033e+00
2.945872236000000000e+09,1.647116279600000066e+00
2.945876236000000000e+09,1.759530782599999954e+00
2.945880236000000000e+09,1.867057704899999893e+00
2.945884220000000000e+09,1.857282543099999961e+00
2.945888220000000000e+09,1.730205297399999953e+00
2.945892212000000000e+09,1.705767393099999918e+00
2.945896212000000000e+09,1.808406638999999982e+00
2.945900196000000000e+09,1.930596256200000083e+00
2.945904196000000000e+09,1.901270771000000082e+00
2.945908180000000000e+09,1.783968686999999997e+00
2.945912176000000000e+09,1.749755620900000030e+00
2.945916172000000000e+09,1.852394962300000003e+00
2.945920184000000000e+09,1.969696998499999907e+00
2.945924176000000000e+09,1.955034255900000018e+00
2.945928168000000000e+09,1.837732219600000105e+00
2.945932176000000000e+09,1.808406638999999982e+00
2.945936160000000000e+09,1.925708675299999895e+00
2.945940156000000000e+09,2.033235549900000105e+00
2.945944156000000000e+09,2.018572807299999994e+00
2.945948152000000000e+09,1.906158351800000039e+00
2.945952156000000000e+09,1.881720447500000004e+00
2.945956160000000000e+09,1.994134902899999950e+00
2.945960156000000000e+09,2.116324424700000151e+00
2.945964164000000000e+09,2.111436843799999963e+00
2.945968172000000000e+09,1.999022483799999916e+00
2.945972168000000000e+09,1.969696998499999907e+00
2.945976164000000000e+09,2.082111358600000184e+00
2.945980164000000000e+09,2.194525957100000202e+00
2.945984172000000000e+09,2.170088052700000159e+00
2.945988164000000000e+09,2.033235549900000105e+00
2.945992168000000000e+09,1.994134902899999950e+00
2.945996164000000000e+09,2.091886520300000107e+00
2.946000164000000000e+09,2.189638376200000014e+00
2.946004164000000000e+09,2.150537729199999859e+00
2.946008168000000000e+09,1.989247321999999984e+00
2.946012156000000000e+09,1.930596256200000083e+00
2.946016160000000000e+09,1.999022483799999916e+00
2.946020156000000000e+09,2.072336196799999808e+00
2.946024156000000000e+09,2.008797645500000062e+00
2.946028152000000000e+09,1.827957057899999960e+00
2.946032152000000000e+09,1.749755620900000030e+00
2.946036148000000000e+09,1.788856267899999963e+00
2.946040152000000000e+09,1.847507381400000037e+00
2.946044156000000000e+09,1.779081106100000031e+00
2.946048164000000000e+09,1.617790794300000057e+00
2.946052156000000000e+09,1.544476985900000043e+00
2.946056156000000000e+09,1.603128051699999945e+00
2.946060160000000000e+09,1.686216926499999991e+00
2.946064164000000000e+09,1.642228698700000100e+00
2.946068172000000000e+09,1.505376338900000110e+00
2.946072176000000000e+09,1.456500530200000032e+00
2.946076164000000000e+09,1.544476985900000043e+00
2.946080164000000000e+09,1.642228698700000100e+00
2.946084172000000000e+09,1.627565956099999989e+00
2.946088184000000000e+09,1.490713596299999999e+00
2.946092184000000000e+09,1.451612949300000066e+00
2.946096180000000000e+09,1.559139728499999933e+00
2.946100180000000000e+09,1.676441764800000067e+00
2.946104196000000000e+09,1.661779022199999956e+00
2.946108196000000000e+09,1.534701824099999889e+00
2.946112208000000000e+09,1.495601177199999965e+00
2.946116204000000000e+09,1.593352890000000022e+00
2.946120196000000000e+09,1.710654973900000098e+00
2.946124196000000000e+09,1.705767393099999918e+00
2.946128196000000000e+09,1.578690147299999902e+00
2.946132196000000000e+09,1.554252147599999967e+00
2.946136204000000000e+09,1.671554183900000101e+00
2.946140212000000000e+09,1.774193525300000074e+00
2.946144212000000000e+09,1.759530782599999954e+00
2.946148212000000000e+09,1.632453536899999946e+00
2.946152220000000000e+09,1.603128051699999945e+00
2.946156220000000000e+09,1.715542554800000064e+00
2.946160228000000000e+09,1.823069476999999994e+00
2.946164228000000000e+09,1.798631429600000109e+00
2.946168236000000000e+09,1.681329345700000033e+00
2.946172236000000000e+09,1.632453536899999946e+00
2.946176240000000000e+09,1.730205297399999953e+00
2.946180236000000000e+09,1.832844638799999926e+00
2.946184240000000000e+09,1.808406638999999982e+00
2.946188228000000000e+09,1.681329345700000033e+00
2.946192236000000000e+09,1.647116279600000066e+00
2.946196240000000000e+09,1.744868040000000065e+00
2.946200228000000000e+09,1.852394962300000003e+00
2.946204236000000000e+09,1.823069476999999994e+00
2.946208228000000000e+09,1.691104650400000020e+00
2.946212220000000000e+09,1.652003860400000024e+00
2.946216216000000000e+09,1.749755620900000030e+00
2.946220212000000000e+09,1.852394962300000003e+00
2.946224212000000000e+09,1.827957057899999960e+00
2.946228204000000000e+09,1.691104650400000020e+00
2.946232204000000000e+09,1.656891441299999990e+00
2.946236212000000000e+09,1.739980459200000107e+00
2.946240212000000000e+09,1.842619800500000071e+00
2.946244212000000000e+09,1.808406638999999982e+00
2.946248204000000000e+09,1.681329345700000033e+00
2.946252212000000000e+09,1.647116279600000066e+00
2.946256224000000000e+09,1.749755620900000030e+00
2.946260220000000000e+09,1.857282543099999961e+00
2.946264236000000000e+09,1.827957057899999960e+00
2.946268228000000000e+09,1.686216926499999991e+00
2.946272228000000000e+09,1.647116279600000066e+00
2.946276240000000000e+09,1.739980459200000107e+00
2.946280236000000000e+09,1.852394962300000003e+00
2.946284240000000000e+09,1.827957057899999960e+00
2.946288236000000000e+09,1.695992231299999986e+00
2.946292236000000000e+09,1.661779022199999956e+00
2.946296236000000000e+09,1.759530782599999954e+00
2.946300236000000000e+09,1.871945285700000072e+00
2.946304240000000000e+09,1.862170123999999927e+00
2.946308236000000000e+09,1.735092878299999919e+00
2.946312236000000000e+09,1.730205297399999953e+00
2.946316228000000000e+09,1.842619800500000071e+00
2.946320224000000000e+09,1.974584579400000095e+00
2.946324232000000000e+09,1.945259094200000094e+00
2.946328228000000000e+09,1.818181896200000036e+00
2.946332236000000000e+09,1.798631429600000109e+00
2.946336236000000000e+09,1.886608028399999970e+00
2.946340232000000000e+09,1.984359741200000027e+00
2.946344236000000000e+09,1.935483837100000049e+00
2.946348240000000000e+09,1.788856267899999963e+00
2.946352236000000000e+09,1.735092878299999919e+00
2.946356236000000000e+09,1.803519058200000025e+00
2.946360220000000000e+09,1.881720447500000004e+00
2.946364220000000000e+09,1.823069476999999994e+00
2.946368212000000000e+09,1.681329345700000033e+00
2.946372220000000000e+09,1.632453536899999946e+00
2.946376228000000000e+09,1.725317716499999987e+00
2.946380240000000000e+09,1.827957057899999960e+00
2.946384236000000000e+09,1.788856267899999963e+00
2.946388236000000000e+09,1.652003860400000024e+00
2.946392236000000000e+09,1.608015632599999911e+00
2.946396228000000000e+09,1.700879812199999952e+00
2.946400220000000000e+09,1.803519058200000025e+00
2.946404212000000000e+09,1.779081106100000031e+00
2.946408212000000000e+09,1.642228698700000100e+00
2.946412212000000000e+09,1.603128051699999945e+00
2.946416212000000000e+09,1.700879812199999952e+00
2.946420212000000000e+09,1.803519058200000025e+00
2.946424204000000000e+09,1.779081106100000031e+00
2.946428204000000000e+09,1.642228698700000100e+00
2.946432212000000000e+09,1.593352890000000022e+00
2.946436204000000000e+09,1.700879812199999952e+00
2.946440204000000000e+09,1.803519058200000025e+00
2.946444184000000000e+09,1.842619800500000071e+00
2.946448176000000000e+09,1.847507381400000037e+00
2.946452172000000000e+09,2.038123130699999841e+00
2.946456172000000000e+09,2.438905239099999900e+00
2.946460180000000000e+09,2.888563156100000029e+00
2.946464196000000000e+09,3.162267923299999950e+00
2.946468204000000000e+09,3.211143732000000028e+00
2.946472212000000000e+09,3.137830018899999907e+00
2.946476204000000000e+09,2.976539611799999818e+00
2.946480212000000000e+09,2.600195407799999803e+00
2.946484196000000000e+09,2.043010711600000029e+00
2.946488184000000000e+09,1.495601177199999965e+00
2.946492192000000000e+09,1.187683343800000069e+00
2.946496200000000000e+09,1.138807415899999897e+00
2.946500200000000000e+09,1.231671571699999967e+00
2.946504212000000000e+09,1.285434961300000012e+00
2.946508216000000000e+09,1.236559152599999933e+00
2.946512228000000000e+09,1.295210122999999935e+00
2.946516228000000000e+09,1.461388111099999998e+00
2.946520236000000000e+09,1.617790794300000057e+00
2.946524228000000000e+09,1.632453536899999946e+00
2.946528228000000000e+09,1.534701824099999889e+00
2.946532228000000000e+09,1.515151500700000042e+00
2.946536228000000000e+09,1.632453536899999946e+00
2.946540236000000000e+09,1.759530782599999954e+00
2.946544236000000000e+09,1.749755620900000030e+00
2.946548236000000000e+09,1.632453536899999946e+00
2.946552240000000000e+09,1.608015632599999911e+00
2.946556236000000000e+09,1.720430135700000029e+00
2.946560236000000000e+09,1.827957057899999960e+00
2.946564236000000000e+09,1.808406638999999982e+00
2.946568220000000000e+09,1.676441764800000067e+00
2.946572212000000000e+09,1.647116279600000066e+00
2.946576220000000000e+09,1.754643201799999996e+00
2.946580224000000000e+09,1.867057704899999893e+00
2.946584220000000000e+09,1.842619800500000071e+00
2.946588220000000000e+09,1.725317716499999987e+00
2.946592228000000000e+09,1.700879812199999952e+00
2.946596228000000000e+09,1.803519058200000025e+00
2.946600228000000000e+09,1.920821094499999937e+00
2.946604220000000000e+09,1.901270771000000082e+00
2.946608212000000000e+09,1.783968686999999997e+00
2.946612204000000000e+09,1.759530782599999954e+00
2.946616204000000000e+09,1.871945285700000072e+00
2.946620216000000000e+09,1.994134902899999950e+00
2.946624212000000000e+09,1.969696998499999907e+00
2.946628212000000000e+09,1.857282543099999961e+00
2.946632220000000000e+09,1.842619800500000071e+00
2.946636224000000000e+09,1.964809417699999949e+00
2.946640220000000000e+09,2.077223777699999996e+00
2.946644220000000000e+09,2.052785873399999961e+00
2.946648212000000000e+09,1.950146675100000060e+00
2.946652216000000000e+09,1.925708675299999895e+00
2.946656212000000000e+09,2.047898292500000217e+00
2.946660204000000000e+09,2.165200471799999971e+00
2.946664196000000000e+09,2.150537729199999859e+00
2.946668196000000000e+09,2.028347968999999917e+00
2.946672180000000000e+09,2.008797645500000062e+00
2.946676172000000000e+09,2.116324424700000151e+00
2.946680180000000000e+09,2.214076280500000049e+00
2.946684180000000000e+09,2.189638376200000014e+00
2.946688180000000000e+09,2.043010711600000029e+00
2.946692164000000000e+09,2.003910064599999874e+00
2.946696140000000000e+09,2.096774101199999851e+00
2.946700140000000000e+09,2.204301118800000125e+00
2.946704140000000000e+09,2.145650148300000115e+00
2.946708140000000000e+09,2.003910064599999874e+00
2.946712124000000000e+09,1.930596256200000083e+00
2.946716128000000000e+09,1.994134902899999950e+00
2.946720124000000000e+09,2.057673454200000140e+00
2.946724128000000000e+09,1.979472160300000061e+00
2.946728128000000000e+09,1.803519058200000025e+00
2.946732116000000000e+09,1.720430135700000029e+00
2.946736108000000000e+09,1.769305944400000108e+00
2.946740108000000000e+09,1.832844638799999926e+00
2.946744116000000000e+09,1.769305944400000108e+00
2.946748116000000000e+09,1.603128051699999945e+00
2.946752116000000000e+09,1.529814243299999932e+00
2.946756124000000000e+09,1.612903213500000099e+00
2.946760136000000000e+09,1.686216926499999991e+00
2.946764140000000000e+09,1.642228698700000100e+00
2.946768148000000000e+09,1.520039081500000000e+00
2.946772144000000000e+09,1.466275691899999956e+00
2.946776140000000000e+09,1.564027404700000012e+00
2.946780124000000000e+09,1.666666602999999913e+00
2.946784116000000000e+09,1.652003860400000024e+00
2.946788108000000000e+09,1.515151500700000042e+00
2.946792112000000000e+09,1.480938434600000075e+00
2.946796108000000000e+09,1.578690147299999902e+00
