timestamp,ecg_measurement
2.962727684000000000e+09,3.181818246799999805e+00
2.962731692000000000e+09,3.519061565299999916e+00
2.962735696000000000e+09,3.866080093299999909e+00
2.962739684000000000e+09,4.066471099800000211e+00
2.962743676000000000e+09,4.149559974599999812e+00
2.962747676000000000e+09,4.261974811500000015e+00
2.962751684000000000e+09,4.296187877600000427e+00
2.962755684000000000e+09,4.061583518900000023e+00
2.962759676000000000e+09,3.445747852299999803e+00
2.962763684000000000e+09,2.717497587200000009e+00
2.962767692000000000e+09,2.204301118800000125e+00
2.962771696000000000e+09,1.989247321999999984e+00
2.962775696000000000e+09,1.945259094200000094e+00
2.962779696000000000e+09,1.832844638799999926e+00
2.962783704000000000e+09,1.700879812199999952e+00
2.962787704000000000e+09,1.710654973900000098e+00
2.962791712000000000e+09,1.867057704899999893e+00
2.962795712000000000e+09,1.979472160300000061e+00
2.962799712000000000e+09,1.896383190099999894e+00
2.962803708000000000e+09,1.705767393099999918e+00
2.962807716000000000e+09,1.632453536899999946e+00
2.962811724000000000e+09,1.666666602999999913e+00
2.962815728000000000e+09,1.671554183900000101e+00
2.962819732000000000e+09,1.524926662399999966e+00
2.962823740000000000e+09,1.270772218699999900e+00
2.962827740000000000e+09,1.104594349799999931e+00
2.962831728000000000e+09,1.055718421899999981e+00
2.962835732000000000e+09,9.970674513999999711e-01
2.962839724000000000e+09,8.260019302000000119e-01
2.962843700000000000e+09,5.816226481999999809e-01
2.962847692000000000e+09,3.861192512000000132e-01
2.962851692000000000e+09,2.932551192999999778e-01
2.962855692000000000e+09,2.150537728999999953e-01
2.962859692000000000e+09,1.368523955000000014e-01
2.962863692000000000e+09,8.797654150000000506e-02
2.962867692000000000e+09,4.887585629999999931e-02
2.962871684000000000e+09,2.932551190000000016e-02
2.962875684000000000e+09,1.466275589999999941e-02
2.962879676000000000e+09,4.887585100000000314e-03
2.962883628000000000e+09,0.000000000000000000e+00
2.962887548000000000e+09,4.887585100000000314e-03
2.962891500000000000e+09,0.000000000000000000e+00
2.962895404000000000e+09,0.000000000000000000e+00
2.962899308000000000e+09,0.000000000000000000e+00
2.962903204000000000e+09,0.000000000000000000e+00
2.962907084000000000e+09,0.000000000000000000e+00
2.962910988000000000e+09,0.000000000000000000e+00
2.962914892000000000e+09,0.000000000000000000e+00
2.962918796000000000e+09,0.000000000000000000e+00
2.962922700000000000e+09,0.000000000000000000e+00
2.962926604000000000e+09,0.000000000000000000e+00
2.962930532000000000e+09,9.775170300000000229e-03
2.962934516000000000e+09,4.398827069999999839e-02
2.962938508000000000e+09,3.421309940000000216e-02
2.962942500000000000e+09,1.955034159999999993e-02
2.962946500000000000e+09,2.443792809999999899e-02
2.962950500000000000e+09,9.286412230000000434e-02
2.962954500000000000e+09,2.150537728999999953e-01
2.962958508000000000e+09,2.297165154999999959e-01
2.962962508000000000e+09,1.612903118000000025e-01
2.962966500000000000e+09,1.417399786999999911e-01
2.962970500000000000e+09,2.297165154999999959e-01
2.962974508000000000e+09,3.763440847000000256e-01
2.962978500000000000e+09,4.252199649000000248e-01
2.962982492000000000e+09,3.763440847000000256e-01
2.962986484000000000e+09,3.421309947000000240e-01
2.962990476000000000e+09,4.252199649000000248e-01
2.962994464000000000e+09,5.474095821000000139e-01
2.962998460000000000e+09,6.060606001999999659e-01
2.963002416000000000e+09,5.180840491999999520e-01
2.963006396000000000e+09,4.398827075000000253e-01
2.963010388000000000e+09,4.789833545000000137e-01
2.963014388000000000e+09,5.816226481999999809e-01
2.963018388000000000e+09,6.207233427999999664e-01
2.963022376000000000e+09,5.131964682999999861e-01
2.963026380000000000e+09,4.349951267000000121e-01
2.963030380000000000e+09,4.887585638999999982e-01
2.963034380000000000e+09,6.011730194000000083e-01
2.963038372000000000e+09,6.402736663000000439e-01
2.963042356000000000e+09,5.620723247000000145e-01
2.963046336000000000e+09,5.131964682999999861e-01
2.963050340000000000e+09,5.718474864000000490e-01
2.963054332000000000e+09,7.086998938999999886e-01
2.963058316000000000e+09,7.624633311999999830e-01
2.963062308000000000e+09,6.989247321999999540e-01
2.963066300000000000e+09,6.549364089000000444e-01
2.963070284000000000e+09,7.184750556000000232e-01
2.963074268000000000e+09,8.504399298999999468e-01
2.963078244000000000e+09,9.188660620999999917e-01
2.963082224000000000e+09,8.651026724999999473e-01
2.963086212000000000e+09,8.260019302000000119e-01
2.963090196000000000e+09,8.895405768999999907e-01
2.963094168000000000e+09,1.021505355800000014e+00
2.963098160000000000e+09,1.080156440699999942e+00
2.963102144000000000e+09,1.021505355800000014e+00
2.963106140000000000e+09,9.677418707999999592e-01
2.963110128000000000e+09,1.036168098399999904e+00
2.963114120000000000e+09,1.173020482000000086e+00
2.963118112000000000e+09,1.231671571699999967e+00
2.963122112000000000e+09,1.173020482000000086e+00
2.963126104000000000e+09,1.109481930699999896e+00
2.963130096000000000e+09,1.173020482000000086e+00
2.963134084000000000e+09,1.295210122999999935e+00
2.963138084000000000e+09,1.348973631800000073e+00
2.963142092000000000e+09,1.275659799500000080e+00
2.963146100000000000e+09,1.207233667299999924e+00
2.963150100000000000e+09,1.260997056899999968e+00
2.963154092000000000e+09,1.378299117000000074e+00
2.963158096000000000e+09,1.427174949599999909e+00
2.963162092000000000e+09,1.348973631800000073e+00
2.963166100000000000e+09,1.280547380400000046e+00
2.963170092000000000e+09,1.348973631800000073e+00
2.963174104000000000e+09,1.456500530200000032e+00
2.963178096000000000e+09,1.495601177199999965e+00
2.963182100000000000e+09,1.397849445300000104e+00
2.963186108000000000e+09,1.324535727500000037e+00
2.963190116000000000e+09,1.378299117000000074e+00
2.963194116000000000e+09,1.500488757999999923e+00
2.963198108000000000e+09,1.539589405000000077e+00
2.963202104000000000e+09,1.451612949300000066e+00
2.963206100000000000e+09,1.383186702699999993e+00
2.963210100000000000e+09,1.441837787599999920e+00
2.963214108000000000e+09,1.559139728499999933e+00
2.963218108000000000e+09,1.598240470799999979e+00
2.963222100000000000e+09,1.500488757999999923e+00
2.963226084000000000e+09,1.427174949599999909e+00
2.963230088000000000e+09,1.466275691899999956e+00
2.963234096000000000e+09,1.593352890000000022e+00
2.963238096000000000e+09,1.622678375200000023e+00
2.963242092000000000e+09,1.524926662399999966e+00
2.963246100000000000e+09,1.456500530200000032e+00
2.963250088000000000e+09,1.495601177199999965e+00
2.963254084000000000e+09,1.627565956099999989e+00
2.963258092000000000e+09,1.666666602999999913e+00
2.963262092000000000e+09,1.578690147299999902e+00
2.963266092000000000e+09,1.524926662399999966e+00
2.963270092000000000e+09,1.559139728499999933e+00
2.963274104000000000e+09,1.686216926499999991e+00
2.963278112000000000e+09,1.739980459200000107e+00
2.963282108000000000e+09,1.647116279600000066e+00
2.963286120000000000e+09,1.593352890000000022e+00
2.963290108000000000e+09,1.666666602999999913e+00
2.963294100000000000e+09,1.798631429600000109e+00
2.963298104000000000e+09,1.827957057899999960e+00
2.963302100000000000e+09,1.735092878299999919e+00
2.963306100000000000e+09,1.666666602999999913e+00
2.963310104000000000e+09,1.715542554800000064e+00
2.963314108000000000e+09,1.832844638799999926e+00
2.963318120000000000e+09,1.871945285700000072e+00
2.963322128000000000e+09,1.730205297399999953e+00
2.963326124000000000e+09,1.627565956099999989e+00
2.963330124000000000e+09,1.647116279600000066e+00
2.963334124000000000e+09,1.735092878299999919e+00
2.963338128000000000e+09,1.739980459200000107e+00
2.963342124000000000e+09,1.617790794300000057e+00
2.963346124000000000e+09,1.529814243299999932e+00
2.963350132000000000e+09,1.568914985599999978e+00
2.963354144000000000e+09,1.686216926499999991e+00
2.963358152000000000e+09,1.715542554800000064e+00
2.963362160000000000e+09,1.608015632599999911e+00
2.963366156000000000e+09,1.529814243299999932e+00
2.963370164000000000e+09,1.578690147299999902e+00
2.963374156000000000e+09,1.695992231299999986e+00
2.963378160000000000e+09,1.725317716499999987e+00
2.963382168000000000e+09,1.622678375200000023e+00
2.963386180000000000e+09,1.539589405000000077e+00
2.963390164000000000e+09,1.598240470799999979e+00
2.963394160000000000e+09,1.715542554800000064e+00
2.963398164000000000e+09,1.735092878299999919e+00
2.963402164000000000e+09,1.627565956099999989e+00
2.963406180000000000e+09,1.539589405000000077e+00
2.963410168000000000e+09,1.593352890000000022e+00
2.963414168000000000e+09,1.739980459200000107e+00
2.963418160000000000e+09,1.842619800500000071e+00
2.963422152000000000e+09,1.871945285700000072e+00
2.963426160000000000e+09,1.994134902899999950e+00
2.963430156000000000e+09,2.302052736199999838e+00
2.963434156000000000e+09,2.707722425400000077e+00
2.963438160000000000e+09,2.996089935300000118e+00
2.963442156000000000e+09,3.005865097000000041e+00
2.963446140000000000e+09,2.834799575799999971e+00
2.963450148000000000e+09,2.580645084299999947e+00
2.963454140000000000e+09,2.248289346600000016e+00
2.963458140000000000e+09,1.803519058200000025e+00
2.963462124000000000e+09,1.344086050900000107e+00
2.963466104000000000e+09,1.036168098399999904e+00
2.963470100000000000e+09,9.726295471000000470e-01
2.963474100000000000e+09,1.099706764200000020e+00
2.963478092000000000e+09,1.221896409900000036e+00
2.963482092000000000e+09,1.231671571699999967e+00
2.963486100000000000e+09,1.256109476000000003e+00
2.963490100000000000e+09,1.388074283499999950e+00
2.963494100000000000e+09,1.568914985599999978e+00
2.963498100000000000e+09,1.652003860400000024e+00
2.963502092000000000e+09,1.583577728200000090e+00
2.963506092000000000e+09,1.529814243299999932e+00
2.963510104000000000e+09,1.593352890000000022e+00
2.963514096000000000e+09,1.725317716499999987e+00
2.963518100000000000e+09,1.764418363499999920e+00
2.963522112000000000e+09,1.671554183900000101e+00
2.963526116000000000e+09,1.603128051699999945e+00
2.963530116000000000e+09,1.666666602999999913e+00
2.963534108000000000e+09,1.793743848799999929e+00
2.963538120000000000e+09,1.832844638799999926e+00
2.963542120000000000e+09,1.739980459200000107e+00
2.963546108000000000e+09,1.666666602999999913e+00
2.963550112000000000e+09,1.725317716499999987e+00
2.963554120000000000e+09,1.857282543099999961e+00
2.963558128000000000e+09,1.886608028399999970e+00
2.963562116000000000e+09,1.803519058200000025e+00
2.963566120000000000e+09,1.715542554800000064e+00
2.963570124000000000e+09,1.774193525300000074e+00
2.963574136000000000e+09,1.906158351800000039e+00
2.963578136000000000e+09,1.930596256200000083e+00
2.963582136000000000e+09,1.847507381400000037e+00
2.963586124000000000e+09,1.764418363499999920e+00
2.963590128000000000e+09,1.837732219600000105e+00
2.963594136000000000e+09,1.969696998499999907e+00
2.963598132000000000e+09,2.003910064599999874e+00
2.963602120000000000e+09,1.896383190099999894e+00
2.963606116000000000e+09,1.823069476999999994e+00
2.963610120000000000e+09,1.896383190099999894e+00
2.963614116000000000e+09,2.028347968999999917e+00
2.963618108000000000e+09,2.077223777699999996e+00
2.963622108000000000e+09,1.969696998499999907e+00
2.963626112000000000e+09,1.906158351800000039e+00
2.963630108000000000e+09,1.974584579400000095e+00
2.963634100000000000e+09,2.116324424700000151e+00
2.963638108000000000e+09,2.160312890999999791e+00
2.963642108000000000e+09,2.052785873399999961e+00
2.963646112000000000e+09,1.989247321999999984e+00
2.963650108000000000e+09,2.047898292500000217e+00
2.963654100000000000e+09,2.174975633599999902e+00
2.963658108000000000e+09,2.199413537899999938e+00
2.963662116000000000e+09,2.077223777699999996e+00
2.963666120000000000e+09,1.999022483799999916e+00
2.963670108000000000e+09,2.057673454200000140e+00
2.963674100000000000e+09,2.179863214400000082e+00
2.963678108000000000e+09,2.194525957100000202e+00
2.963682116000000000e+09,2.052785873399999961e+00
2.963686120000000000e+09,1.950146675100000060e+00
2.963690116000000000e+09,1.969696998499999907e+00
2.963694116000000000e+09,2.052785873399999961e+00
2.963698116000000000e+09,2.043010711600000029e+00
2.963702112000000000e+09,1.867057704899999893e+00
2.963706112000000000e+09,1.749755620900000030e+00
2.963710120000000000e+09,1.744868040000000065e+00
2.963714100000000000e+09,1.818181896200000036e+00
2.963718100000000000e+09,1.793743848799999929e+00
2.963722108000000000e+09,1.647116279600000066e+00
2.963726124000000000e+09,1.539589405000000077e+00
2.963730116000000000e+09,1.559139728499999933e+00
2.963734124000000000e+09,1.656891441299999990e+00
2.963738132000000000e+09,1.666666602999999913e+00
2.963742124000000000e+09,1.549364566800000009e+00
2.963746136000000000e+09,1.466275691899999956e+00
2.963750140000000000e+09,1.515151500700000042e+00
2.963754148000000000e+09,1.637341117799999912e+00
2.963758148000000000e+09,1.661779022199999956e+00
2.963762148000000000e+09,1.554252147599999967e+00
2.963766160000000000e+09,1.476050853700000109e+00
2.963770148000000000e+09,1.529814243299999932e+00
2.963774156000000000e+09,1.652003860400000024e+00
2.963778152000000000e+09,1.681329345700000033e+00
2.963782156000000000e+09,1.573802566499999944e+00
2.963786156000000000e+09,1.510263919800000076e+00
2.963790156000000000e+09,1.573802566499999944e+00
2.963794156000000000e+09,1.705767393099999918e+00
2.963798164000000000e+09,1.735092878299999919e+00
2.963802164000000000e+09,1.632453536899999946e+00
2.963806164000000000e+09,1.568914985599999978e+00
2.963810180000000000e+09,1.637341117799999912e+00
2.963814188000000000e+09,1.769305944400000108e+00
2.963818188000000000e+09,1.798631429600000109e+00
2.963822196000000000e+09,1.700879812199999952e+00
2.963826188000000000e+09,1.622678375200000023e+00
2.963830196000000000e+09,1.681329345700000033e+00
2.963834212000000000e+09,1.818181896200000036e+00
2.963838220000000000e+09,1.837732219600000105e+00
2.963842224000000000e+09,1.730205297399999953e+00
2.963846212000000000e+09,1.661779022199999956e+00
2.963850212000000000e+09,1.720430135700000029e+00
2.963854212000000000e+09,1.852394962300000003e+00
2.963858220000000000e+09,1.857282543099999961e+00
2.963862224000000000e+09,1.744868040000000065e+00
2.963866212000000000e+09,1.666666602999999913e+00
2.963870204000000000e+09,1.725317716499999987e+00
2.963874212000000000e+09,1.837732219600000105e+00
2.963878220000000000e+09,1.842619800500000071e+00
2.963882220000000000e+09,1.720430135700000029e+00
2.963886220000000000e+09,1.627565956099999989e+00
2.963890228000000000e+09,1.661779022199999956e+00
2.963894224000000000e+09,1.759530782599999954e+00
2.963898220000000000e+09,1.715542554800000064e+00
2.963902220000000000e+09,1.520039081500000000e+00
2.963906212000000000e+09,1.300097703899999901e+00
2.963910196000000000e+09,1.124144673300000008e+00
2.963914204000000000e+09,9.530791281999999587e-01
2.963918196000000000e+09,7.184750556000000232e-01
2.963922188000000000e+09,4.643206119000000132e-01
2.963926184000000000e+09,2.834799574999999905e-01
2.963930180000000000e+09,1.710654973000000079e-01
2.963934164000000000e+09,9.286412230000000434e-02
2.963938164000000000e+09,5.865102290000000218e-02
2.963942156000000000e+09,2.932551190000000016e-02
2.963946156000000000e+09,1.466275589999999941e-02
2.963950148000000000e+09,4.887585100000000314e-03
2.963954100000000000e+09,0.000000000000000000e+00
2.963958004000000000e+09,0.000000000000000000e+00
2.963961900000000000e+09,0.000000000000000000e+00
2.963965796000000000e+09,0.000000000000000000e+00
2.963969692000000000e+09,0.000000000000000000e+00
2.963973620000000000e+09,9.775170300000000229e-03
2.963977572000000000e+09,0.000000000000000000e+00
2.963981468000000000e+09,0.000000000000000000e+00
2.963985356000000000e+09,0.000000000000000000e+00
2.963989244000000000e+09,0.000000000000000000e+00
2.963993132000000000e+09,0.000000000000000000e+00
2.963997028000000000e+09,0.000000000000000000e+00
2.964000932000000000e+09,0.000000000000000000e+00
2.964004852000000000e+09,4.887585100000000314e-03
2.964008804000000000e+09,0.000000000000000000e+00
2.964012700000000000e+09,0.000000000000000000e+00
2.964016604000000000e+09,0.000000000000000000e+00
2.964020508000000000e+09,0.000000000000000000e+00
2.964024404000000000e+09,0.000000000000000000e+00
2.964028284000000000e+09,0.000000000000000000e+00
2.964032180000000000e+09,0.000000000000000000e+00
2.964036068000000000e+09,0.000000000000000000e+00
2.964039964000000000e+09,0.000000000000000000e+00
2.964043860000000000e+09,0.000000000000000000e+00
2.964047748000000000e+09,0.000000000000000000e+00
2.964051652000000000e+09,0.000000000000000000e+00
2.964055556000000000e+09,0.000000000000000000e+00
2.964059452000000000e+09,0.000000000000000000e+00
2.964063356000000000e+09,0.000000000000000000e+00
2.964067244000000000e+09,0.000000000000000000e+00
2.964071132000000000e+09,0.000000000000000000e+00
2.964075060000000000e+09,4.887585100000000314e-03
2.964079012000000000e+09,0.000000000000000000e+00
2.964082908000000000e+09,0.000000000000000000e+00
2.964086800000000000e+09,0.000000000000000000e+00
2.964090692000000000e+09,0.000000000000000000e+00
2.964094596000000000e+09,0.000000000000000000e+00
2.964098500000000000e+09,0.000000000000000000e+00
2.964102404000000000e+09,0.000000000000000000e+00
2.964106284000000000e+09,0.000000000000000000e+00
2.964110180000000000e+09,0.000000000000000000e+00
2.964114076000000000e+09,0.000000000000000000e+00
2.964117980000000000e+09,0.000000000000000000e+00
2.964121908000000000e+09,9.775170300000000229e-03
2.964125860000000000e+09,0.000000000000000000e+00
2.964129756000000000e+09,0.000000000000000000e+00
2.964133660000000000e+09,0.000000000000000000e+00
2.964137564000000000e+09,0.000000000000000000e+00
2.964141460000000000e+09,0.000000000000000000e+00
2.964145356000000000e+09,0.000000000000000000e+00
2.964149244000000000e+09,0.000000000000000000e+00
2.964153132000000000e+09,0.000000000000000000e+00
2.964157028000000000e+09,0.000000000000000000e+00
2.964160956000000000e+09,4.887585100000000314e-03
2.964164908000000000e+09,0.000000000000000000e+00
2.964168804000000000e+09,0.000000000000000000e+00
2.964172692000000000e+09,0.000000000000000000e+00
2.964176588000000000e+09,0.000000000000000000e+00
2.964180492000000000e+09,0.000000000000000000e+00
2.964184396000000000e+09,0.000000000000000000e+00
2.964188300000000000e+09,0.000000000000000000e+00
2.964192192000000000e+09,0.000000000000000000e+00
2.964196084000000000e+09,0.000000000000000000e+00
2.964199980000000000e+09,0.000000000000000000e+00
2.964203884000000000e+09,0.000000000000000000e+00
2.964207788000000000e+09,0.000000000000000000e+00
2.964211684000000000e+09,0.000000000000000000e+00
2.964215620000000000e+09,4.887585100000000314e-03
2.964219572000000000e+09,0.000000000000000000e+00
2.964223476000000000e+09,0.000000000000000000e+00
2.964227372000000000e+09,0.000000000000000000e+00
2.964231268000000000e+09,0.000000000000000000e+00
2.964235196000000000e+09,4.398827069999999839e-02
2.964239188000000000e+09,5.865102290000000218e-02
2.964243180000000000e+09,3.910068319999999986e-02
2.964247156000000000e+09,2.443792809999999899e-02
2.964251148000000000e+09,5.376344200000000156e-02
2.964255140000000000e+09,1.515151499999999873e-01
2.964259136000000000e+09,2.590420245999999760e-01
2.964263132000000000e+09,2.639296053999999891e-01
2.964267112000000000e+09,2.541544437000000101e-01
2.964271112000000000e+09,2.981427192000000170e-01
2.964275108000000000e+09,4.203323364000000062e-01
2.964279100000000000e+09,5.229716300000000206e-01
2.964283092000000000e+09,5.571847438000000485e-01
2.964287092000000000e+09,5.376344202999999711e-01
2.964291084000000000e+09,5.767350673000000150e-01
2.964295076000000000e+09,6.842619894999999453e-01
2.964299076000000000e+09,7.917888641000000449e-01
2.964303068000000000e+09,8.162267683999999690e-01
2.964307068000000000e+09,8.064516067000000454e-01
2.964311048000000000e+09,8.455523489999999809e-01
2.964315036000000000e+09,9.628542900000000015e-01
2.964319016000000000e+09,1.060606002799999947e+00
2.964322992000000000e+09,1.075268864599999930e+00
2.964326988000000000e+09,1.119257092400000042e+00
2.964330988000000000e+09,1.202346086499999966e+00
2.964334980000000000e+09,1.309872865600000047e+00
2.964338980000000000e+09,1.383186702699999993e+00
2.964342988000000000e+09,1.300097703899999901e+00
2.964346972000000000e+09,1.192570924700000035e+00
2.964350960000000000e+09,1.148582577700000051e+00
2.964354972000000000e+09,1.197458505600000001e+00
2.964358972000000000e+09,1.246334314300000079e+00
2.964362980000000000e+09,1.202346086499999966e+00
2.964366968000000000e+09,1.129032254199999974e+00
2.964370972000000000e+09,1.085044021599999908e+00
2.964374960000000000e+09,1.138807415899999897e+00
2.964378964000000000e+09,1.207233667299999924e+00
2.964382960000000000e+09,1.168132901099999899e+00
2.964386964000000000e+09,1.085044021599999908e+00
2.964390952000000000e+09,1.041055679300000092e+00
2.964394940000000000e+09,1.085044021599999908e+00
2.964398932000000000e+09,1.124144673300000008e+00
2.964402936000000000e+09,1.075268864599999930e+00
2.964406932000000000e+09,9.921798706000000134e-01
2.964410924000000000e+09,9.677418707999999592e-01
2.964414912000000000e+09,1.031280517499999938e+00
2.964418904000000000e+09,1.094819183300000054e+00
2.964422904000000000e+09,1.070381283699999964e+00
2.964426904000000000e+09,1.006842613199999903e+00
2.964430896000000000e+09,9.921798706000000134e-01
2.964434880000000000e+09,1.080156440699999942e+00
2.964438876000000000e+09,1.163245320299999941e+00
2.964442872000000000e+09,1.158357739399999975e+00
2.964446872000000000e+09,1.109481930699999896e+00
2.964450868000000000e+09,1.114369511600000084e+00
2.964454876000000000e+09,1.197458505600000001e+00
2.964458876000000000e+09,1.280547380400000046e+00
2.964462868000000000e+09,1.260997056899999968e+00
2.964466860000000000e+09,1.207233667299999924e+00
2.964470852000000000e+09,1.207233667299999924e+00
2.964474852000000000e+09,1.285434961300000012e+00
2.964478864000000000e+09,1.368523955299999928e+00
2.964482868000000000e+09,1.353861212700000038e+00
2.964486876000000000e+09,1.304985284800000089e+00
2.964490876000000000e+09,1.300097703899999901e+00
2.964494864000000000e+09,1.373411536199999894e+00
2.964498868000000000e+09,1.432062530500000097e+00
2.964502868000000000e+09,1.392961864399999916e+00
2.964506868000000000e+09,1.319648146600000072e+00
2.964510884000000000e+09,1.300097703899999901e+00
2.964514864000000000e+09,1.368523955299999928e+00
2.964518860000000000e+09,1.441837787599999920e+00
2.964522868000000000e+09,1.402737045200000088e+00
2.964526860000000000e+09,1.339198470099999927e+00
2.964530860000000000e+09,1.334310889199999961e+00
2.964534860000000000e+09,1.412512207000000020e+00
2.964538864000000000e+09,1.490713596299999999e+00
2.964542872000000000e+09,1.451612949300000066e+00
2.964546876000000000e+09,1.392961864399999916e+00
2.964550876000000000e+09,1.378299117000000074e+00
2.964554880000000000e+09,1.456500530200000032e+00
2.964558868000000000e+09,1.529814243299999932e+00
2.964562868000000000e+09,1.505376338900000110e+00
2.964566868000000000e+09,1.446725368400000100e+00
2.964570880000000000e+09,1.436950111300000055e+00
2.964574884000000000e+09,1.515151500700000042e+00
2.964578884000000000e+09,1.583577728200000090e+00
2.964582892000000000e+09,1.534701824099999889e+00
2.964586896000000000e+09,1.461388111099999998e+00
2.964590900000000000e+09,1.446725368400000100e+00
2.964594908000000000e+09,1.515151500700000042e+00
2.964598908000000000e+09,1.578690147299999902e+00
2.964602908000000000e+09,1.534701824099999889e+00
2.964606904000000000e+09,1.466275691899999956e+00
2.964610912000000000e+09,1.456500530200000032e+00
2.964614900000000000e+09,1.529814243299999932e+00
2.964618912000000000e+09,1.608015632599999911e+00
2.964622908000000000e+09,1.588465309100000056e+00
2.964626908000000000e+09,1.539589405000000077e+00
2.964630900000000000e+09,1.573802566499999944e+00
2.964634900000000000e+09,1.666666602999999913e+00
2.964638900000000000e+09,1.754643201799999996e+00
2.964642904000000000e+09,1.720430135700000029e+00
2.964646892000000000e+09,1.652003860400000024e+00
2.964650884000000000e+09,1.642228698700000100e+00
2.964654884000000000e+09,1.720430135700000029e+00
2.964658884000000000e+09,1.803519058200000025e+00
2.964662876000000000e+09,1.764418363499999920e+00
2.964666888000000000e+09,1.700879812199999952e+00
2.964670876000000000e+09,1.676441764800000067e+00
2.964674888000000000e+09,1.744868040000000065e+00
2.964678868000000000e+09,1.793743848799999929e+00
2.964682880000000000e+09,1.730205297399999953e+00
2.964686876000000000e+09,1.637341117799999912e+00
2.964690880000000000e+09,1.622678375200000023e+00
2.964694888000000000e+09,1.700879812199999952e+00
2.964698876000000000e+09,1.774193525300000074e+00
2.964702888000000000e+09,1.739980459200000107e+00
2.964706884000000000e+09,1.676441764800000067e+00
2.964710892000000000e+09,1.656891441299999990e+00
2.964714904000000000e+09,1.730205297399999953e+00
2.964718900000000000e+09,1.798631429600000109e+00
2.964722912000000000e+09,1.749755620900000030e+00
2.964726912000000000e+09,1.671554183900000101e+00
2.964730916000000000e+09,1.656891441299999990e+00
2.964734920000000000e+09,1.739980459200000107e+00
2.964738916000000000e+09,1.803519058200000025e+00
2.964742908000000000e+09,1.754643201799999996e+00
2.964746908000000000e+09,1.666666602999999913e+00
2.964750908000000000e+09,1.637341117799999912e+00
2.964754916000000000e+09,1.705767393099999918e+00
2.964758916000000000e+09,1.769305944400000108e+00
2.964762920000000000e+09,1.744868040000000065e+00
2.964766904000000000e+09,1.720430135700000029e+00
2.964770892000000000e+09,1.813294315300000070e+00
2.964774900000000000e+09,2.072336196799999808e+00
2.964778900000000000e+09,2.414467334699999856e+00
2.964782908000000000e+09,2.707722425400000077e+00
2.964786912000000000e+09,2.952101707400000219e+00
2.964790908000000000e+09,3.137830018899999907e+00
2.964794900000000000e+09,3.206256151099999840e+00
2.964798908000000000e+09,3.015640258699999965e+00
2.964802908000000000e+09,2.512218952100000013e+00
2.964806920000000000e+09,1.896383190099999894e+00
2.964810924000000000e+09,1.402737045200000088e+00
2.964814912000000000e+09,1.158357739399999975e+00
2.964818904000000000e+09,1.089931602400000088e+00
2.964822900000000000e+09,1.060606002799999947e+00
2.964826872000000000e+09,1.055718421899999981e+00
2.964830872000000000e+09,1.143694996800000085e+00
2.964834876000000000e+09,1.314760565700000106e+00
2.964838880000000000e+09,1.466275691899999956e+00
2.964842888000000000e+09,1.495601177199999965e+00
2.964846888000000000e+09,1.476050853700000109e+00
2.964850880000000000e+09,1.495601177199999965e+00
2.964854876000000000e+09,1.588465309100000056e+00
2.964858872000000000e+09,1.681329345700000033e+00
2.964862876000000000e+09,1.656891441299999990e+00
2.964866884000000000e+09,1.598240470799999979e+00
2.964870876000000000e+09,1.603128051699999945e+00
2.964874880000000000e+09,1.686216926499999991e+00
2.964878884000000000e+09,1.754643201799999996e+00
2.964882888000000000e+09,1.710654973900000098e+00
2.964886884000000000e+09,1.632453536899999946e+00
2.964890892000000000e+09,1.617790794300000057e+00
2.964894892000000000e+09,1.695992231299999986e+00
2.964898892000000000e+09,1.769305944400000108e+00
2.964902884000000000e+09,1.735092878299999919e+00
2.964906884000000000e+09,1.676441764800000067e+00
2.964910892000000000e+09,1.676441764800000067e+00
2.964914900000000000e+09,1.759530782599999954e+00
2.964918904000000000e+09,1.837732219600000105e+00
2.964922908000000000e+09,1.818181896200000036e+00
2.964926916000000000e+09,1.759530782599999954e+00
2.964930916000000000e+09,1.769305944400000108e+00
2.964934920000000000e+09,1.867057704899999893e+00
2.964938920000000000e+09,1.940371513299999906e+00
2.964942916000000000e+09,1.911045932700000005e+00
2.964946912000000000e+09,1.847507381400000037e+00
2.964950912000000000e+09,1.857282543099999961e+00
2.964954920000000000e+09,1.945259094200000094e+00
2.964958916000000000e+09,2.013685226399999806e+00
2.964962920000000000e+09,1.979472160300000061e+00
2.964966916000000000e+09,1.915933513599999971e+00
2.964970928000000000e+09,1.920821094499999937e+00
2.964974924000000000e+09,2.013685226399999806e+00
2.964978924000000000e+09,2.096774101199999851e+00
2.964982924000000000e+09,2.072336196799999808e+00
2.964986920000000000e+09,2.013685226399999806e+00
2.964990916000000000e+09,2.023460388100000173e+00
2.964994916000000000e+09,2.111436843799999963e+00
2.964998924000000000e+09,2.179863214400000082e+00
2.965002932000000000e+09,2.135874986600000192e+00
2.965006940000000000e+09,2.062561035099999884e+00
2.965010932000000000e+09,2.052785873399999961e+00
2.965014932000000000e+09,2.116324424700000151e+00
2.965018940000000000e+09,2.160312890999999791e+00
2.965022940000000000e+09,2.086998939499999928e+00
2.965026936000000000e+09,1.984359741200000027e+00
2.965030940000000000e+09,1.945259094200000094e+00
2.965034936000000000e+09,1.979472160300000061e+00
2.965038944000000000e+09,1.999022483799999916e+00
2.965042944000000000e+09,1.906158351800000039e+00
2.965046948000000000e+09,1.788856267899999963e+00
2.965050956000000000e+09,1.735092878299999919e+00
2.965054956000000000e+09,1.759530782599999954e+00
2.965058956000000000e+09,1.759530782599999954e+00
2.965062956000000000e+09,1.661779022199999956e+00
2.965066956000000000e+09,1.568914985599999978e+00
2.965070956000000000e+09,1.505376338900000110e+00
2.965074956000000000e+09,1.554252147599999967e+00
2.965078960000000000e+09,1.593352890000000022e+00
2.965082956000000000e+09,1.529814243299999932e+00
2.965086968000000000e+09,1.456500530200000032e+00
2.965090956000000000e+09,1.441837787599999920e+00
2.965094964000000000e+09,1.520039081500000000e+00
2.965098956000000000e+09,1.568914985599999978e+00
2.965102964000000000e+09,1.524926662399999966e+00
2.965106976000000000e+09,1.456500530200000032e+00
2.965110968000000000e+09,1.451612949300000066e+00
2.965114972000000000e+09,1.539589405000000077e+00
2.965118956000000000e+09,1.598240470799999979e+00
2.965122948000000000e+09,1.559139728499999933e+00
2.965126960000000000e+09,1.495601177199999965e+00
2.965130960000000000e+09,1.485826015400000033e+00
2.965134956000000000e+09,1.564027404700000012e+00
2.965138948000000000e+09,1.627565956099999989e+00
2.965142956000000000e+09,1.598240470799999979e+00
2.965146948000000000e+09,1.510263919800000076e+00
2.965150948000000000e+09,1.505376338900000110e+00
2.965154948000000000e+09,1.578690147299999902e+00
2.965158948000000000e+09,1.652003860400000024e+00
2.965162932000000000e+09,1.608015632599999911e+00
2.965166932000000000e+09,1.534701824099999889e+00
2.965170940000000000e+09,1.524926662399999966e+00
2.965174948000000000e+09,1.598240470799999979e+00
2.965178940000000000e+09,1.661779022199999956e+00
2.965182948000000000e+09,1.617790794300000057e+00
2.965186948000000000e+09,1.549364566800000009e+00
2.965190956000000000e+09,1.544476985900000043e+00
2.965194964000000000e+09,1.627565956099999989e+00
2.965198976000000000e+09,1.691104650400000020e+00
2.965202972000000000e+09,1.652003860400000024e+00
2.965206956000000000e+09,1.583577728200000090e+00
2.965210968000000000e+09,1.593352890000000022e+00
2.965214956000000000e+09,1.666666602999999913e+00
2.965218948000000000e+09,1.735092878299999919e+00
2.965222948000000000e+09,1.691104650400000020e+00
2.965226940000000000e+09,1.617790794300000057e+00
2.965230944000000000e+09,1.608015632599999911e+00
2.965234940000000000e+09,1.676441764800000067e+00
2.965238952000000000e+09,1.739980459200000107e+00
2.965242948000000000e+09,1.666666602999999913e+00
2.965246944000000000e+09,1.593352890000000022e+00
2.965250940000000000e+09,1.578690147299999902e+00
2.965254940000000000e+09,1.656891441299999990e+00
2.965258948000000000e+09,1.735092878299999919e+00
2.965262948000000000e+09,1.676441764800000067e+00
2.965266960000000000e+09,1.608015632599999911e+00
2.965270956000000000e+09,1.598240470799999979e+00
2.965274948000000000e+09,1.681329345700000033e+00
2.965278960000000000e+09,1.749755620900000030e+00
2.965282956000000000e+09,1.705767393099999918e+00
2.965286960000000000e+09,1.647116279600000066e+00
2.965290964000000000e+09,1.642228698700000100e+00
2.965294968000000000e+09,1.725317716499999987e+00
2.965298980000000000e+09,1.788856267899999963e+00
2.965302980000000000e+09,1.754643201799999996e+00
2.965306984000000000e+09,1.715542554800000064e+00
2.965310992000000000e+09,1.749755620900000030e+00
2.965314988000000000e+09,1.852394962300000003e+00
2.965319000000000000e+09,1.940371513299999906e+00
2.965323008000000000e+09,1.935483837100000049e+00
2.965327016000000000e+09,1.867057704899999893e+00
2.965331004000000000e+09,1.886608028399999970e+00
2.965335000000000000e+09,1.984359741200000027e+00
2.965339004000000000e+09,2.047898292500000217e+00
2.965343008000000000e+09,1.984359741200000027e+00
2.965347012000000000e+09,1.886608028399999970e+00
2.965351016000000000e+09,1.847507381400000037e+00
2.965355016000000000e+09,1.886608028399999970e+00
2.965359008000000000e+09,1.906158351800000039e+00
2.965363004000000000e+09,1.823069476999999994e+00
2.965367000000000000e+09,1.730205297399999953e+00
2.965370988000000000e+09,1.720430135700000029e+00
2.965374988000000000e+09,1.779081106100000031e+00
2.965378980000000000e+09,1.813294315300000070e+00
2.965382992000000000e+09,1.739980459200000107e+00
2.965386988000000000e+09,1.647116279600000066e+00
2.965391008000000000e+09,1.612903213500000099e+00
2.965395020000000000e+09,1.661779022199999956e+00
2.965399028000000000e+09,1.691104650400000020e+00
2.965403028000000000e+09,1.632453536899999946e+00
2.965407036000000000e+09,1.549364566800000009e+00
2.965411044000000000e+09,1.549364566800000009e+00
2.965415052000000000e+09,1.652003860400000024e+00
2.965419044000000000e+09,1.710654973900000098e+00
2.965423048000000000e+09,1.671554183900000101e+00
2.965427052000000000e+09,1.588465309100000056e+00
2.965431052000000000e+09,1.573802566499999944e+00
2.965435060000000000e+09,1.661779022199999956e+00
2.965439068000000000e+09,1.764418363499999920e+00
2.965443080000000000e+09,1.823069476999999994e+00
2.965447072000000000e+09,1.940371513299999906e+00
2.965451076000000000e+09,2.214076280500000049e+00
2.965455080000000000e+09,2.624633312199999846e+00
2.965459092000000000e+09,3.010752677899999785e+00
2.965463088000000000e+09,3.220918893799999960e+00
2.965467084000000000e+09,3.196480989399999917e+00
2.965471076000000000e+09,3.010752677899999785e+00
2.965475076000000000e+09,2.693059682799999965e+00
2.965479076000000000e+09,2.165200471799999971e+00
2.965483076000000000e+09,1.612903213500000099e+00
2.965487092000000000e+09,1.202346086499999966e+00
2.965491088000000000e+09,1.011730194000000083e+00
2.965495080000000000e+09,1.065493702799999998e+00
2.965499076000000000e+09,1.182795639000000065e+00
2.965503068000000000e+09,1.256109476000000003e+00
2.965507060000000000e+09,1.304985284800000089e+00
2.965511060000000000e+09,1.407624626100000054e+00
2.965515060000000000e+09,1.564027404700000012e+00
2.965519052000000000e+09,1.676441764800000067e+00
2.965523060000000000e+09,1.632453536899999946e+00
2.965527068000000000e+09,1.534701824099999889e+00
2.965531068000000000e+09,1.505376338900000110e+00
2.965535068000000000e+09,1.568914985599999978e+00
2.965539068000000000e+09,1.637341117799999912e+00
2.965543088000000000e+09,1.608015632599999911e+00
2.965547076000000000e+09,1.559139728499999933e+00
2.965551076000000000e+09,1.588465309100000056e+00
2.965555076000000000e+09,1.695992231299999986e+00
2.965559084000000000e+09,1.783968686999999997e+00
2.965563076000000000e+09,1.769305944400000108e+00
2.965567080000000000e+09,1.710654973900000098e+00
2.965571080000000000e+09,1.730205297399999953e+00
2.965575072000000000e+09,1.827957057899999960e+00
2.965579072000000000e+09,1.906158351800000039e+00
2.965583076000000000e+09,1.886608028399999970e+00
2.965587072000000000e+09,1.832844638799999926e+00
2.965591076000000000e+09,1.867057704899999893e+00
2.965595072000000000e+09,1.959921836799999983e+00
2.965599068000000000e+09,2.028347968999999917e+00
2.965603064000000000e+09,1.974584579400000095e+00
2.965607068000000000e+09,1.896383190099999894e+00
2.965611068000000000e+09,1.891495609199999928e+00
2.965615072000000000e+09,1.964809417699999949e+00
2.965619068000000000e+09,2.018572807299999994e+00
2.965623064000000000e+09,1.959921836799999983e+00
2.965627060000000000e+09,1.881720447500000004e+00
2.965631052000000000e+09,1.876832866600000038e+00
2.965635056000000000e+09,1.959921836799999983e+00
2.965639052000000000e+09,2.023460388100000173e+00
2.965643048000000000e+09,1.979472160300000061e+00
2.965647048000000000e+09,1.935483837100000049e+00
2.965651056000000000e+09,1.945259094200000094e+00
2.965655052000000000e+09,2.047898292500000217e+00
2.965659044000000000e+09,2.126099824899999824e+00
2.965663044000000000e+09,2.101661682100000039e+00
2.965667044000000000e+09,2.043010711600000029e+00
2.965671036000000000e+09,2.062561035099999884e+00
2.965675036000000000e+09,2.170088052700000159e+00
2.965679020000000000e+09,2.214076280500000049e+00
2.965683012000000000e+09,2.174975633599999902e+00
2.965687020000000000e+09,2.091886520300000107e+00
2.965691012000000000e+09,2.101661682100000039e+00
2.965695012000000000e+09,2.184750795299999826e+00
2.965699012000000000e+09,2.243401765799999836e+00
2.965703012000000000e+09,2.184750795299999826e+00
2.965707012000000000e+09,2.096774101199999851e+00
2.965711012000000000e+09,2.062561035099999884e+00
2.965715004000000000e+09,2.062561035099999884e+00
2.965718996000000000e+09,2.028347968999999917e+00
2.965722992000000000e+09,1.842619800500000071e+00
2.965726988000000000e+09,1.627565956099999989e+00
2.965731000000000000e+09,1.485826015400000033e+00
2.965735000000000000e+09,1.456500530200000032e+00
2.965738988000000000e+09,1.461388111099999998e+00
2.965742996000000000e+09,1.353861212700000038e+00
2.965747012000000000e+09,1.256109476000000003e+00
2.965751004000000000e+09,1.202346086499999966e+00
2.965755004000000000e+09,1.226783990800000002e+00
2.965759004000000000e+09,1.256109476000000003e+00
2.965762984000000000e+09,1.168132901099999899e+00
2.965766988000000000e+09,1.104594349799999931e+00
2.965770980000000000e+09,1.085044021599999908e+00
2.965774960000000000e+09,1.173020482000000086e+00
2.965778948000000000e+09,1.236559152599999933e+00
2.965782956000000000e+09,1.231671571699999967e+00
2.965786964000000000e+09,1.207233667299999924e+00
2.965790964000000000e+09,1.260997056899999968e+00
2.965794956000000000e+09,1.402737045200000088e+00
2.965798956000000000e+09,1.529814243299999932e+00
2.965802956000000000e+09,1.578690147299999902e+00
2.965806956000000000e+09,1.588465309100000056e+00
2.965810960000000000e+09,1.686216926499999991e+00
2.965814968000000000e+09,1.896383190099999894e+00
2.965818964000000000e+09,2.077223777699999996e+00
2.965822964000000000e+09,2.086998939499999928e+00
2.965826956000000000e+09,2.008797645500000062e+00
2.965830948000000000e+09,2.013685226399999806e+00
2.965834948000000000e+09,2.047898292500000217e+00
2.965838940000000000e+09,2.052785873399999961e+00
2.965842932000000000e+09,1.915933513599999971e+00
2.965846940000000000e+09,1.764418363499999920e+00
2.965850952000000000e+09,1.686216926499999991e+00
2.965854956000000000e+09,1.695992231299999986e+00
2.965858968000000000e+09,1.744868040000000065e+00
2.965862948000000000e+09,1.735092878299999919e+00
2.965866952000000000e+09,1.710654973900000098e+00
2.965870948000000000e+09,1.735092878299999919e+00
2.965874952000000000e+09,1.715542554800000064e+00
2.965878960000000000e+09,1.681329345700000033e+00
2.965882956000000000e+09,1.554252147599999967e+00
2.965886960000000000e+09,1.456500530200000032e+00
2.965890948000000000e+09,1.427174949599999909e+00
2.965894960000000000e+09,1.480938434600000075e+00
2.965898956000000000e+09,1.524926662399999966e+00
2.965902964000000000e+09,1.471163272799999922e+00
2.965906972000000000e+09,1.378299117000000074e+00
2.965910976000000000e+09,1.373411536199999894e+00
2.965914992000000000e+09,1.456500530200000032e+00
2.965918980000000000e+09,1.529814243299999932e+00
2.965922988000000000e+09,1.515151500700000042e+00
2.965926980000000000e+09,1.461388111099999998e+00
2.965930992000000000e+09,1.480938434600000075e+00
2.965934988000000000e+09,1.564027404700000012e+00
2.965938988000000000e+09,1.632453536899999946e+00
2.965943000000000000e+09,1.593352890000000022e+00
2.965946996000000000e+09,1.515151500700000042e+00
2.965951000000000000e+09,1.480938434600000075e+00
2.965955004000000000e+09,1.524926662399999966e+00
2.965959012000000000e+09,1.549364566800000009e+00
2.965963020000000000e+09,1.500488757999999923e+00
2.965967012000000000e+09,1.446725368400000100e+00
2.965971016000000000e+09,1.451612949300000066e+00
2.965975020000000000e+09,1.544476985900000043e+00
2.965979028000000000e+09,1.637341117799999912e+00
2.965983036000000000e+09,1.642228698700000100e+00
2.965987044000000000e+09,1.627565956099999989e+00
2.965991052000000000e+09,1.652003860400000024e+00
2.965995044000000000e+09,1.735092878299999919e+00
2.965999044000000000e+09,1.823069476999999994e+00
2.966003044000000000e+09,1.793743848799999929e+00
2.966007056000000000e+09,1.749755620900000030e+00
2.966011052000000000e+09,1.754643201799999996e+00
2.966015044000000000e+09,1.823069476999999994e+00
2.966019040000000000e+09,1.867057704899999893e+00
2.966023028000000000e+09,1.813294315300000070e+00
2.966027040000000000e+09,1.744868040000000065e+00
2.966031024000000000e+09,1.720430135700000029e+00
2.966035020000000000e+09,1.788856267899999963e+00
2.966039024000000000e+09,1.827957057899999960e+00
2.966043020000000000e+09,1.783968686999999997e+00
2.966047012000000000e+09,1.720430135700000029e+00
2.966051016000000000e+09,1.715542554800000064e+00
2.966055012000000000e+09,1.779081106100000031e+00
2.966059012000000000e+09,1.827957057899999960e+00
2.966063004000000000e+09,1.798631429600000109e+00
2.966067016000000000e+09,1.739980459200000107e+00
2.966071012000000000e+09,1.759530782599999954e+00
2.966075012000000000e+09,1.832844638799999926e+00
2.966079020000000000e+09,1.881720447500000004e+00
2.966083024000000000e+09,1.827957057899999960e+00
2.966087024000000000e+09,1.739980459200000107e+00
2.966091020000000000e+09,1.695992231299999986e+00
2.966095028000000000e+09,1.735092878299999919e+00
2.966099032000000000e+09,1.725317716499999987e+00
2.966103036000000000e+09,1.661779022199999956e+00
2.966107044000000000e+09,1.588465309100000056e+00
2.966111044000000000e+09,1.598240470799999979e+00
2.966115036000000000e+09,1.774193525300000074e+00
2.966119044000000000e+09,2.033235549900000105e+00
2.966123044000000000e+09,2.297165155400000103e+00
2.966127052000000000e+09,2.561094760800000092e+00
2.966131044000000000e+09,2.834799575799999971e+00
2.966135052000000000e+09,3.025415420499999897e+00
2.966139048000000000e+09,2.956989288299999963e+00
2.966143036000000000e+09,2.605082988699999991e+00
2.966147020000000000e+09,2.077223777699999996e+00
2.966151020000000000e+09,1.603128051699999945e+00
2.966155020000000000e+09,1.334310889199999961e+00
2.966159028000000000e+09,1.256109476000000003e+00
2.966163020000000000e+09,1.290322542099999970e+00
2.966167032000000000e+09,1.373411536199999894e+00
2.966171044000000000e+09,1.539589405000000077e+00
2.966175036000000000e+09,1.788856267899999963e+00
2.966179048000000000e+09,1.950146675100000060e+00
2.966183052000000000e+09,2.003910064599999874e+00
2.966187036000000000e+09,1.994134902899999950e+00
2.966191028000000000e+09,2.013685226399999806e+00
2.966195028000000000e+09,2.062561035099999884e+00
2.966199028000000000e+09,2.082111358600000184e+00
2.966203036000000000e+09,2.038123130699999841e+00
2.966207040000000000e+09,1.969696998499999907e+00
2.966211040000000000e+09,1.974584579400000095e+00
2.966215044000000000e+09,2.028347968999999917e+00
2.966219036000000000e+09,2.047898292500000217e+00
2.966223040000000000e+09,1.994134902899999950e+00
2.966227032000000000e+09,1.906158351800000039e+00
2.966231028000000000e+09,1.901270771000000082e+00
2.966235032000000000e+09,1.935483837100000049e+00
2.966239040000000000e+09,1.959921836799999983e+00
2.966243044000000000e+09,1.915933513599999971e+00
2.966247056000000000e+09,1.837732219600000105e+00
2.966251064000000000e+09,1.837732219600000105e+00
2.966255072000000000e+09,1.896383190099999894e+00
2.966259072000000000e+09,1.920821094499999937e+00
2.966263068000000000e+09,1.891495609199999928e+00
2.966267072000000000e+09,1.862170123999999927e+00
2.966271060000000000e+09,1.896383190099999894e+00
2.966275056000000000e+09,1.964809417699999949e+00
2.966279056000000000e+09,1.989247321999999984e+00
2.966283056000000000e+09,1.930596256200000083e+00
2.966287056000000000e+09,1.842619800500000071e+00
2.966291048000000000e+09,1.837732219600000105e+00
2.966295056000000000e+09,1.871945285700000072e+00
2.966299060000000000e+09,1.891495609199999928e+00
2.966303064000000000e+09,1.847507381400000037e+00
2.966307068000000000e+09,1.798631429600000109e+00
2.966311076000000000e+09,1.823069476999999994e+00
2.966315072000000000e+09,1.906158351800000039e+00
2.966319072000000000e+09,1.974584579400000095e+00
2.966323080000000000e+09,1.969696998499999907e+00
2.966327080000000000e+09,1.959921836799999983e+00
2.966331076000000000e+09,2.023460388100000173e+00
2.966335068000000000e+09,2.150537729199999859e+00
2.966339068000000000e+09,2.238514184900000092e+00
2.966343076000000000e+09,2.248289346600000016e+00
2.966347076000000000e+09,2.228739023200000169e+00
2.966351076000000000e+09,2.243401765799999836e+00
2.966355076000000000e+09,2.302052736199999838e+00
2.966359076000000000e+09,2.331378221500000070e+00
2.966363076000000000e+09,2.287389993600000171e+00
2.966367076000000000e+09,2.233626603999999904e+00
2.966371076000000000e+09,2.248289346600000016e+00
2.966375076000000000e+09,2.306940317100000026e+00
2.966379076000000000e+09,2.321603059700000138e+00
2.966383068000000000e+09,2.233626603999999904e+00
2.966387068000000000e+09,2.121212005599999895e+00
2.966391068000000000e+09,2.072336196799999808e+00
2.966395068000000000e+09,2.057673454200000140e+00
2.966399068000000000e+09,2.033235549900000105e+00
2.966402052000000000e+09,1.925708675299999895e+00
2.966407068000000000e+09,1.813294315300000070e+00
2.966411076000000000e+09,1.764418363499999920e+00
2.966415088000000000e+09,1.788856267899999963e+00
2.966419092000000000e+09,1.813294315300000070e+00
2.966423100000000000e+09,1.759530782599999954e+00
2.966427100000000000e+09,1.681329345700000033e+00
2.966431108000000000e+09,1.656891441299999990e+00
2.966435120000000000e+09,1.700879812199999952e+00
2.966439108000000000e+09,1.705767393099999918e+00
2.966443108000000000e+09,1.642228698700000100e+00
2.966447116000000000e+09,1.559139728499999933e+00
2.966451116000000000e+09,1.529814243299999932e+00
2.966455124000000000e+09,1.559139728499999933e+00
2.966459132000000000e+09,1.559139728499999933e+00
2.966463140000000000e+09,1.500488757999999923e+00
2.966467128000000000e+09,1.451612949300000066e+00
2.966471136000000000e+09,1.456500530200000032e+00
2.966475124000000000e+09,1.524926662399999966e+00
2.966479132000000000e+09,1.564027404700000012e+00
2.966483132000000000e+09,1.520039081500000000e+00
2.966487120000000000e+09,1.476050853700000109e+00
2.966491112000000000e+09,1.485826015400000033e+00
2.966495108000000000e+09,1.549364566800000009e+00
2.966499116000000000e+09,1.588465309100000056e+00
2.966503116000000000e+09,1.534701824099999889e+00
2.966507124000000000e+09,1.471163272799999922e+00
2.966511136000000000e+09,1.466275691899999956e+00
2.966515140000000000e+09,1.524926662399999966e+00
2.966519148000000000e+09,1.554252147599999967e+00
2.966523156000000000e+09,1.500488757999999923e+00
2.966527148000000000e+09,1.432062530500000097e+00
2.966531148000000000e+09,1.378299117000000074e+00
2.966535140000000000e+09,1.397849445300000104e+00
2.966539140000000000e+09,1.407624626100000054e+00
2.966543140000000000e+09,1.344086050900000107e+00
2.966547124000000000e+09,1.275659799500000080e+00
2.966551132000000000e+09,1.246334314300000079e+00
2.966555140000000000e+09,1.270772218699999900e+00
2.966559140000000000e+09,1.285434961300000012e+00
2.966563148000000000e+09,1.221896409900000036e+00
2.966567136000000000e+09,1.168132901099999899e+00
2.966571140000000000e+09,1.182795639000000065e+00
2.966575140000000000e+09,1.270772218699999900e+00
2.966579132000000000e+09,1.363636374399999962e+00
2.966583140000000000e+09,1.392961864399999916e+00
2.966587152000000000e+09,1.417399787899999986e+00
2.966591160000000000e+09,1.480938434600000075e+00
2.966595168000000000e+09,1.608015632599999911e+00
2.966599168000000000e+09,1.710654973900000098e+00
2.966603168000000000e+09,1.715542554800000064e+00
2.966607180000000000e+09,1.691104650400000020e+00
2.966611180000000000e+09,1.695992231299999986e+00
2.966615188000000000e+09,1.764418363499999920e+00
2.966619192000000000e+09,1.798631429600000109e+00
2.966623196000000000e+09,1.764418363499999920e+00
2.966627204000000000e+09,1.730205297399999953e+00
2.966631196000000000e+09,1.764418363499999920e+00
2.966635204000000000e+09,1.842619800500000071e+00
2.966639196000000000e+09,1.886608028399999970e+00
2.966643188000000000e+09,1.876832866600000038e+00
2.966647196000000000e+09,1.876832866600000038e+00
2.966651208000000000e+09,1.935483837100000049e+00
2.966655212000000000e+09,2.052785873399999961e+00
2.966659212000000000e+09,2.130987405700000004e+00
2.966663200000000000e+09,2.091886520300000107e+00
2.966667188000000000e+09,2.008797645500000062e+00
2.966671184000000000e+09,1.984359741200000027e+00
2.966675188000000000e+09,2.047898292500000217e+00
2.966679188000000000e+09,2.135874986600000192e+00
2.966683188000000000e+09,2.165200471799999971e+00
2.966687180000000000e+09,2.184750795299999826e+00
2.966691180000000000e+09,2.233626603999999904e+00
2.966695180000000000e+09,2.331378221500000070e+00
2.966699188000000000e+09,2.350928544899999917e+00
2.966703180000000000e+09,2.253176927500000204e+00
2.966707180000000000e+09,2.072336196799999808e+00
2.966711180000000000e+09,1.881720447500000004e+00
2.966715188000000000e+09,1.710654973900000098e+00
2.966719196000000000e+09,1.520039081500000000e+00
2.966723188000000000e+09,1.314760565700000106e+00
2.966727184000000000e+09,1.163245320299999941e+00
2.966731184000000000e+09,1.129032254199999974e+00
2.966735184000000000e+09,1.231671571699999967e+00
2.966739196000000000e+09,1.344086050900000107e+00
2.966743188000000000e+09,1.451612949300000066e+00
2.966747192000000000e+09,1.588465309100000056e+00
2.966751188000000000e+09,1.818181896200000036e+00
2.966755196000000000e+09,2.150537729199999859e+00
2.966759204000000000e+09,2.492668628600000158e+00
2.966763212000000000e+09,2.653959035799999810e+00
2.966767212000000000e+09,2.634408712299999955e+00
2.966771212000000000e+09,2.526881694700000125e+00
2.966775212000000000e+09,2.512218952100000013e+00
2.966779220000000000e+09,2.507331371299999834e+00
2.966783220000000000e+09,2.512218952100000013e+00
2.966787220000000000e+09,2.517106533000000201e+00
2.966791216000000000e+09,2.453567981700000011e+00
2.966795220000000000e+09,2.253176927500000204e+00
2.966799220000000000e+09,1.823069476999999994e+00
2.966803208000000000e+09,1.207233667299999924e+00
2.966807212000000000e+09,7.429130077000000165e-01
2.966811196000000000e+09,4.692081927999999791e-01
2.966815188000000000e+09,3.958944320000000183e-01
2.966819180000000000e+09,4.594330309999999917e-01
2.966823156000000000e+09,5.571847438000000485e-01
2.966827156000000000e+09,6.989247321999999540e-01
2.966831152000000000e+09,8.944281577999999566e-01
2.966835136000000000e+09,1.129032254199999974e+00
2.966839140000000000e+09,1.324535727500000037e+00
2.966843156000000000e+09,1.422287368699999943e+00
2.966847168000000000e+09,1.485826015400000033e+00
2.966851164000000000e+09,1.583577728200000090e+00
2.966855180000000000e+09,1.695992231299999986e+00
2.966859188000000000e+09,1.779081106100000031e+00
2.966863188000000000e+09,1.783968686999999997e+00
2.966867192000000000e+09,1.749755620900000030e+00
2.966871188000000000e+09,1.774193525300000074e+00
2.966875192000000000e+09,1.823069476999999994e+00
2.966879180000000000e+09,1.842619800500000071e+00
2.966883180000000000e+09,1.769305944400000108e+00
2.966887180000000000e+09,1.691104650400000020e+00
2.966891168000000000e+09,1.652003860400000024e+00
2.966895156000000000e+09,1.656891441299999990e+00
2.966899164000000000e+09,1.632453536899999946e+00
2.966903180000000000e+09,1.520039081500000000e+00
2.966907164000000000e+09,1.407624626100000054e+00
2.966911180000000000e+09,1.348973631800000073e+00
2.966915180000000000e+09,1.344086050900000107e+00
2.966919156000000000e+09,1.344086050900000107e+00
2.966923140000000000e+09,1.256109476000000003e+00
2.966927132000000000e+09,1.177908062900000052e+00
2.966931120000000000e+09,1.148582577700000051e+00
2.966935128000000000e+09,1.187683343800000069e+00
2.966939136000000000e+09,1.168132901099999899e+00
2.966943136000000000e+09,1.094819183300000054e+00
2.966947136000000000e+09,1.016617774900000049e+00
2.966951140000000000e+09,9.775171279000000046e-01
2.966955140000000000e+09,9.872922897000000475e-01
2.966959140000000000e+09,9.677418707999999592e-01
2.966963124000000000e+09,8.895405768999999907e-01
2.966967116000000000e+09,8.064516067000000454e-01
2.966971100000000000e+09,7.722384929000000175e-01
2.966975092000000000e+09,7.575757503000000170e-01
2.966979084000000000e+09,7.331378458999999737e-01
2.966983084000000000e+09,6.451612472000000098e-01
2.966987080000000000e+09,5.474095821000000139e-01
2.966991076000000000e+09,4.887585638999999982e-01
2.966995068000000000e+09,4.692081927999999791e-01
2.966999056000000000e+09,4.301075457999999907e-01
2.967003044000000000e+09,3.421309947000000240e-01
2.967007036000000000e+09,2.297165154999999959e-01
2.967011044000000000e+09,1.564027309000000088e-01
2.967015036000000000e+09,1.173020481999999948e-01
2.967019036000000000e+09,8.308896059999999750e-02
2.967023028000000000e+09,4.887585629999999931e-02
2.967027028000000000e+09,2.932551190000000016e-02
2.967031028000000000e+09,1.955034159999999993e-02
2.967035028000000000e+09,4.887585100000000314e-03
2.967038988000000000e+09,0.000000000000000000e+00
2.967042884000000000e+09,0.000000000000000000e+00
2.967046780000000000e+09,0.000000000000000000e+00
2.967050684000000000e+09,0.000000000000000000e+00
2.967054588000000000e+09,0.000000000000000000e+00
2.967058484000000000e+09,0.000000000000000000e+00
2.967062380000000000e+09,0.000000000000000000e+00
2.967066276000000000e+09,0.000000000000000000e+00
2.967070164000000000e+09,0.000000000000000000e+00
2.967074060000000000e+09,0.000000000000000000e+00
2.967077956000000000e+09,0.000000000000000000e+00
2.967081852000000000e+09,0.000000000000000000e+00
2.967085756000000000e+09,0.000000000000000000e+00
2.967089652000000000e+09,0.000000000000000000e+00
2.967093548000000000e+09,0.000000000000000000e+00
2.967097452000000000e+09,0.000000000000000000e+00
2.967101348000000000e+09,0.000000000000000000e+00
2.967105244000000000e+09,0.000000000000000000e+00
2.967109132000000000e+09,0.000000000000000000e+00
2.967113028000000000e+09,0.000000000000000000e+00
2.967116932000000000e+09,0.000000000000000000e+00
2.967120828000000000e+09,0.000000000000000000e+00
2.967124732000000000e+09,0.000000000000000000e+00
2.967128628000000000e+09,0.000000000000000000e+00
2.967132524000000000e+09,0.000000000000000000e+00
2.967136420000000000e+09,0.000000000000000000e+00
2.967140316000000000e+09,0.000000000000000000e+00
2.967144212000000000e+09,0.000000000000000000e+00
2.967148108000000000e+09,0.000000000000000000e+00
2.967152012000000000e+09,0.000000000000000000e+00
2.967155916000000000e+09,0.000000000000000000e+00
2.967159852000000000e+09,9.775170300000000229e-03
2.967163796000000000e+09,0.000000000000000000e+00
2.967167692000000000e+09,0.000000000000000000e+00
2.967171588000000000e+09,0.000000000000000000e+00
2.967175492000000000e+09,0.000000000000000000e+00
2.967179396000000000e+09,0.000000000000000000e+00
2.967183284000000000e+09,0.000000000000000000e+00
2.967187188000000000e+09,0.000000000000000000e+00
2.967191076000000000e+09,0.000000000000000000e+00
2.967194972000000000e+09,0.000000000000000000e+00
2.967198876000000000e+09,0.000000000000000000e+00
2.967202772000000000e+09,0.000000000000000000e+00
2.967206676000000000e+09,0.000000000000000000e+00
2.967210580000000000e+09,0.000000000000000000e+00
2.967214484000000000e+09,0.000000000000000000e+00
2.967218388000000000e+09,0.000000000000000000e+00
2.967222316000000000e+09,4.887585100000000314e-03
2.967226252000000000e+09,0.000000000000000000e+00
2.967230140000000000e+09,0.000000000000000000e+00
2.967234036000000000e+09,0.000000000000000000e+00
2.967237940000000000e+09,0.000000000000000000e+00
2.967241876000000000e+09,4.887585100000000314e-03
2.967245820000000000e+09,0.000000000000000000e+00
2.967249724000000000e+09,0.000000000000000000e+00
2.967253652000000000e+09,1.466275589999999941e-02
2.967257644000000000e+09,4.887585629999999931e-02
2.967261636000000000e+09,4.398827069999999839e-02
2.967265628000000000e+09,3.421309940000000216e-02
2.967269620000000000e+09,5.865102290000000218e-02
2.967273612000000000e+09,1.417399786999999911e-01
2.967277608000000000e+09,2.346040963999999895e-01
2.967281596000000000e+09,2.834799574999999905e-01
2.967285588000000000e+09,2.981427192000000170e-01
2.967289588000000000e+09,3.323558329999999894e-01
2.967293588000000000e+09,4.105571746000000188e-01
2.967297580000000000e+09,4.887585638999999982e-01
2.967301568000000000e+09,5.034213065999999515e-01
2.967305564000000000e+09,4.838709353999999796e-01
2.967309556000000000e+09,4.838709353999999796e-01
2.967313548000000000e+09,5.376344202999999711e-01
2.967317544000000000e+09,5.913978099000000155e-01
2.967321524000000000e+09,5.816226481999999809e-01
2.967325524000000000e+09,5.229716300000000206e-01
2.967329508000000000e+09,4.985337256999999855e-01
2.967333504000000000e+09,5.180840491999999520e-01
2.967337488000000000e+09,5.474095821000000139e-01
2.967341480000000000e+09,5.327468395000000134e-01
2.967345476000000000e+09,4.936461448000000196e-01
2.967349476000000000e+09,4.887585638999999982e-01
2.967353468000000000e+09,5.522971629999999799e-01
2.967357464000000000e+09,6.158357620000000088e-01
2.967361452000000000e+09,6.353860854999999752e-01
2.967365444000000000e+09,6.304985046000000093e-01
2.967369428000000000e+09,6.598240852000000212e-01
2.967373420000000000e+09,7.429130077000000165e-01
2.967377412000000000e+09,8.260019302000000119e-01
2.967381396000000000e+09,8.797654150999999478e-01
2.967385396000000000e+09,8.699902534000000243e-01
2.967389388000000000e+09,8.944281577999999566e-01
2.967393380000000000e+09,9.530791281999999587e-01
2.967397368000000000e+09,1.016617774900000049e+00
2.967401368000000000e+09,1.031280517499999938e+00
2.967405360000000000e+09,1.041055679300000092e+00
2.967409356000000000e+09,1.114369511600000084e+00
2.967413364000000000e+09,1.309872865600000047e+00
2.967417364000000000e+09,1.617790794300000057e+00
2.967421368000000000e+09,1.979472160300000061e+00
2.967425364000000000e+09,2.326490640599999882e+00
2.967429364000000000e+09,2.629521131500000219e+00
2.967433380000000000e+09,2.805474090500000184e+00
2.967437368000000000e+09,2.732160329800000120e+00
2.967441364000000000e+09,2.360703706699999849e+00
2.967445356000000000e+09,1.813294315300000070e+00
2.967449364000000000e+09,1.260997056899999968e+00
2.967453356000000000e+09,8.993157386000000253e-01
2.967457356000000000e+09,7.086998938999999886e-01
2.967461348000000000e+09,6.060606001999999659e-01
2.967465308000000000e+09,5.865102290999999468e-01
2.967469300000000000e+09,6.207233427999999664e-01
2.967473292000000000e+09,7.429130077000000165e-01
2.967477272000000000e+09,8.602150916999999897e-01
2.967481252000000000e+09,9.090909003999999571e-01
2.967485220000000000e+09,8.993157386000000253e-01
2.967489220000000000e+09,8.895405768999999907e-01
2.967493212000000000e+09,9.237536429999999577e-01
2.967497204000000000e+09,9.579667091000000356e-01
2.967501196000000000e+09,9.237536429999999577e-01
2.967505188000000000e+09,8.699902534000000243e-01
2.967509180000000000e+09,8.357770919000000465e-01
2.967513156000000000e+09,8.553275108000000237e-01
2.967517140000000000e+09,8.993157386000000253e-01
2.967521132000000000e+09,8.553275108000000237e-01
2.967525124000000000e+09,8.162267683999999690e-01
2.967529116000000000e+09,7.673509120000000516e-01
2.967533108000000000e+09,7.722384929000000175e-01
2.967537100000000000e+09,7.820137023000000021e-01
2.967541084000000000e+09,7.429130077000000165e-01
2.967545076000000000e+09,6.842619894999999453e-01
2.967549076000000000e+09,6.500488280999999757e-01
2.967553064000000000e+09,6.500488280999999757e-01
2.967557044000000000e+09,6.549364089000000444e-01
2.967561028000000000e+09,6.109481811000000429e-01
2.967565020000000000e+09,5.425220012000000480e-01
2.967569000000000000e+09,5.131964682999999861e-01
2.967572996000000000e+09,5.229716300000000206e-01
2.967576988000000000e+09,5.767350673000000150e-01
2.967580980000000000e+09,5.571847438000000485e-01
2.967584976000000000e+09,5.278592108999999866e-01
2.967588960000000000e+09,5.034213065999999515e-01
2.967592948000000000e+09,5.425220012000000480e-01
2.967596940000000000e+09,5.962854385000000423e-01
2.967600932000000000e+09,6.011730194000000083e-01
2.967604924000000000e+09,5.913978099000000155e-01
2.967608916000000000e+09,6.109481811000000429e-01
2.967612908000000000e+09,6.842619894999999453e-01
2.967616908000000000e+09,7.869012831999999680e-01
2.967620900000000000e+09,8.455523489999999809e-01
2.967624892000000000e+09,8.797654150999999478e-01
2.967628884000000000e+09,9.237536429999999577e-01
2.967632864000000000e+09,1.011730194000000083e+00
2.967636860000000000e+09,1.119257092400000042e+00
2.967640856000000000e+09,1.187683343800000069e+00
2.967644860000000000e+09,1.207233667299999924e+00
2.967648860000000000e+09,1.212121248199999890e+00
2.967652868000000000e+09,1.226783990800000002e+00
2.967656868000000000e+09,1.241446733399999891e+00
2.967660876000000000e+09,1.192570924700000035e+00
2.967664876000000000e+09,1.045943260100000050e+00
2.967668868000000000e+09,9.286412239000000346e-01
2.967672868000000000e+09,8.748778342999999902e-01
2.967676860000000000e+09,8.308895110999999778e-01
2.967680852000000000e+09,7.380254268000000506e-01
2.967684844000000000e+09,5.962854385000000423e-01
2.967688836000000000e+09,4.740957735999999922e-01
2.967692828000000000e+09,4.105571746000000188e-01
2.967696820000000000e+09,3.861192512000000132e-01
2.967700820000000000e+09,3.665689228999999827e-01
2.967704820000000000e+09,3.470185755999999899e-01
2.967708812000000000e+09,3.665689228999999827e-01
2.967712804000000000e+09,4.447702883999999912e-01
2.967716776000000000e+09,5.474095821000000139e-01
2.967720768000000000e+09,5.865102290999999468e-01
2.967724760000000000e+09,5.865102290999999468e-01
2.967728756000000000e+09,5.816226481999999809e-01
2.967732744000000000e+09,6.256109237000000434e-01
2.967736740000000000e+09,6.744868278000000217e-01
2.967740732000000000e+09,6.744868278000000217e-01
2.967744732000000000e+09,6.207233427999999664e-01
2.967748724000000000e+09,5.718474864000000490e-01
2.967752712000000000e+09,5.767350673000000150e-01
2.967756700000000000e+09,5.962854385000000423e-01
2.967760692000000000e+09,5.522971629999999799e-01
2.967764684000000000e+09,4.789833545000000137e-01
2.967768676000000000e+09,4.056695938000000057e-01
2.967772668000000000e+09,4.007820128999999842e-01
2.967776652000000000e+09,3.861192512000000132e-01
2.967780652000000000e+09,3.567937373999999773e-01
2.967784652000000000e+09,2.883675384000000119e-01
2.967788632000000000e+09,2.590420245999999760e-01
2.967792620000000000e+09,2.492668627999999886e-01
2.967796620000000000e+09,3.176930426999999835e-01
2.967800612000000000e+09,3.372434139000000108e-01
2.967804612000000000e+09,3.323558329999999894e-01
2.967808604000000000e+09,3.567937373999999773e-01
2.967812604000000000e+09,4.301075457999999907e-01
2.967816592000000000e+09,5.131964682999999861e-01
2.967820592000000000e+09,5.474095821000000139e-01
2.967824588000000000e+09,5.376344202999999711e-01
2.967828572000000000e+09,5.571847438000000485e-01
2.967832556000000000e+09,6.353860854999999752e-01
2.967836548000000000e+09,7.526881694000000511e-01
2.967840548000000000e+09,8.113391876000000114e-01
2.967844548000000000e+09,8.308895110999999778e-01
2.967848540000000000e+09,8.651026724999999473e-01
2.967852532000000000e+09,9.481915472999999928e-01
2.967856528000000000e+09,1.050830841000000015e+00
2.967860516000000000e+09,1.104594349799999931e+00
2.967864512000000000e+09,1.109481930699999896e+00
2.967868500000000000e+09,1.124144673300000008e+00
2.967872500000000000e+09,1.192570924700000035e+00
2.967876500000000000e+09,1.290322542099999970e+00
2.967880500000000000e+09,1.363636374399999962e+00
2.967884508000000000e+09,1.412512207000000020e+00
2.967888512000000000e+09,1.485826015400000033e+00
2.967892508000000000e+09,1.598240470799999979e+00
2.967896500000000000e+09,1.735092878299999919e+00
2.967900500000000000e+09,1.818181896200000036e+00
2.967904512000000000e+09,1.862170123999999927e+00
2.967908520000000000e+09,1.915933513599999971e+00
2.967912524000000000e+09,2.008797645500000062e+00
2.967916508000000000e+09,2.121212005599999895e+00
2.967920508000000000e+09,2.170088052700000159e+00
2.967924500000000000e+09,2.189638376200000014e+00
2.967928508000000000e+09,2.228739023200000169e+00
2.967932508000000000e+09,2.277614831899999803e+00
2.967936516000000000e+09,2.331378221500000070e+00
2.967940532000000000e+09,2.302052736199999838e+00
2.967944532000000000e+09,2.194525957100000202e+00
2.967948540000000000e+09,2.082111358600000184e+00
2.967952548000000000e+09,2.028347968999999917e+00
2.967956540000000000e+09,2.013685226399999806e+00
2.967960536000000000e+09,1.964809417699999949e+00
2.967964544000000000e+09,1.862170123999999927e+00
2.967968540000000000e+09,1.803519058200000025e+00
2.967972536000000000e+09,1.818181896200000036e+00
2.967976544000000000e+09,1.867057704899999893e+00
2.967980536000000000e+09,1.867057704899999893e+00
2.967984528000000000e+09,1.832844638799999926e+00
2.967988532000000000e+09,1.813294315300000070e+00
2.967992540000000000e+09,1.832844638799999926e+00
2.967996544000000000e+09,1.857282543099999961e+00
2.968000548000000000e+09,1.823069476999999994e+00
2.968004536000000000e+09,1.749755620900000030e+00
2.968008536000000000e+09,1.710654973900000098e+00
2.968012536000000000e+09,1.705767393099999918e+00
2.968016536000000000e+09,1.749755620900000030e+00
2.968020536000000000e+09,1.744868040000000065e+00
2.968024520000000000e+09,1.710654973900000098e+00
2.968028516000000000e+09,1.695992231299999986e+00
2.968032528000000000e+09,1.749755620900000030e+00
2.968036524000000000e+09,1.818181896200000036e+00
2.968040524000000000e+09,1.818181896200000036e+00
2.968044524000000000e+09,1.788856267899999963e+00
2.968048532000000000e+09,1.823069476999999994e+00
2.968052536000000000e+09,1.984359741200000027e+00
2.968056540000000000e+09,2.223851442299999981e+00
2.968060548000000000e+09,2.482893466899999790e+00
2.968064548000000000e+09,2.815249252300000116e+00
2.968068556000000000e+09,3.235581636400000072e+00
2.968072568000000000e+09,3.714565038599999980e+00
2.968076564000000000e+09,4.159335136400000188e+00
2.968080572000000000e+09,4.359726428900000172e+00
2.968084564000000000e+09,4.217986106799999746e+00
2.968088560000000000e+09,3.870967674200000097e+00
2.968092556000000000e+09,3.377321720099999869e+00
2.968096564000000000e+09,2.864125061000000194e+00
2.968100564000000000e+09,2.419354915600000044e+00
2.968104572000000000e+09,2.111436843799999963e+00
2.968108584000000000e+09,1.994134902899999950e+00
2.968112580000000000e+09,2.038123130699999841e+00
2.968116580000000000e+09,2.170088052700000159e+00
2.968120572000000000e+09,2.272727251000000059e+00
2.968124580000000000e+09,2.336265802299999805e+00
2.968128572000000000e+09,2.404692172999999933e+00
2.968132564000000000e+09,2.473118305199999867e+00
2.968136564000000000e+09,2.551319599100000168e+00
2.968140572000000000e+09,2.507331371299999834e+00
2.968144580000000000e+09,2.409579753800000113e+00
2.968148580000000000e+09,2.346040964100000181e+00
2.968152572000000000e+09,2.316715478799999950e+00
2.968156580000000000e+09,2.306940317100000026e+00
2.968160580000000000e+09,2.209188699699999869e+00
2.968164580000000000e+09,2.062561035099999884e+00
2.968168584000000000e+09,1.959921836799999983e+00
2.968172588000000000e+09,1.940371513299999906e+00
2.968176580000000000e+09,2.008797645500000062e+00
2.968180572000000000e+09,2.062561035099999884e+00
2.968184564000000000e+09,2.121212005599999895e+00
2.968188564000000000e+09,2.214076280500000049e+00
2.968192556000000000e+09,2.336265802299999805e+00
2.968196556000000000e+09,2.414467334699999856e+00
2.968200564000000000e+09,2.404692172999999933e+00
2.968204564000000000e+09,2.341153383199999993e+00
2.968208572000000000e+09,2.302052736199999838e+00
2.968212564000000000e+09,2.331378221500000070e+00
2.968216564000000000e+09,2.370478868400000216e+00
2.968220564000000000e+09,2.346040964100000181e+00
2.968224564000000000e+09,2.282502412699999983e+00
2.968228564000000000e+09,2.253176927500000204e+00
2.968232572000000000e+09,2.287389993600000171e+00
2.968236572000000000e+09,2.331378221500000070e+00
2.968240580000000000e+09,2.321603059700000138e+00
2.968244572000000000e+09,2.267839670099999871e+00
2.968248572000000000e+09,2.243401765799999836e+00
2.968252580000000000e+09,2.282502412699999983e+00
2.968256572000000000e+09,2.346040964100000181e+00
2.968260556000000000e+09,2.365591287600000037e+00
2.968264564000000000e+09,2.350928544899999917e+00
2.968268564000000000e+09,2.350928544899999917e+00
2.968272564000000000e+09,2.424242496399999780e+00
2.968276564000000000e+09,2.487781047799999978e+00
2.968280568000000000e+09,2.497556209499999902e+00
2.968284564000000000e+09,2.434017658200000156e+00
2.968288564000000000e+09,2.385141849500000077e+00
2.968292572000000000e+09,2.355816125800000105e+00
2.968296580000000000e+09,2.277614831899999803e+00
2.968300588000000000e+09,2.160312890999999791e+00
2.968304580000000000e+09,2.033235549900000105e+00
2.968308584000000000e+09,1.974584579400000095e+00
2.968312580000000000e+09,2.013685226399999806e+00
2.968316580000000000e+09,2.057673454200000140e+00
2.968320580000000000e+09,2.047898292500000217e+00
2.968324584000000000e+09,1.969696998499999907e+00
2.968328580000000000e+09,1.911045932700000005e+00
2.968332592000000000e+09,1.915933513599999971e+00
2.968336608000000000e+09,1.920821094499999937e+00
2.968340608000000000e+09,1.871945285700000072e+00
2.968344612000000000e+09,1.808406638999999982e+00
2.968348600000000000e+09,1.739980459200000107e+00
2.968352600000000000e+09,1.744868040000000065e+00
2.968356580000000000e+09,1.769305944400000108e+00
2.968360580000000000e+09,1.759530782599999954e+00
2.968364580000000000e+09,1.681329345700000033e+00
2.968368596000000000e+09,1.647116279600000066e+00
2.968372608000000000e+09,1.681329345700000033e+00
2.968376616000000000e+09,1.725317716499999987e+00
2.968380624000000000e+09,1.715542554800000064e+00
2.968384620000000000e+09,1.681329345700000033e+00
2.968388636000000000e+09,1.676441764800000067e+00
2.968392640000000000e+09,1.730205297399999953e+00
2.968396632000000000e+09,1.808406638999999982e+00
2.968400620000000000e+09,1.788856267899999963e+00
2.968404628000000000e+09,1.759530782599999954e+00
2.968408628000000000e+09,1.754643201799999996e+00
2.968412632000000000e+09,1.823069476999999994e+00
2.968416624000000000e+09,1.886608028399999970e+00
2.968420612000000000e+09,1.891495609199999928e+00
2.968424612000000000e+09,1.852394962300000003e+00
2.968428616000000000e+09,1.842619800500000071e+00
2.968432604000000000e+09,1.896383190099999894e+00
2.968436608000000000e+09,1.964809417699999949e+00
2.968440608000000000e+09,1.974584579400000095e+00
2.968444608000000000e+09,1.935483837100000049e+00
2.968448616000000000e+09,1.906158351800000039e+00
2.968452624000000000e+09,1.940371513299999906e+00
2.968456632000000000e+09,1.994134902899999950e+00
2.968460628000000000e+09,2.003910064599999874e+00
2.968464616000000000e+09,1.984359741200000027e+00
2.968468624000000000e+09,1.984359741200000027e+00
2.968472624000000000e+09,2.038123130699999841e+00
2.968476612000000000e+09,2.082111358600000184e+00
2.968480620000000000e+09,2.052785873399999961e+00
2.968484624000000000e+09,1.994134902899999950e+00
2.968488624000000000e+09,1.994134902899999950e+00
2.968492620000000000e+09,2.057673454200000140e+00
2.968496620000000000e+09,2.126099824899999824e+00
2.968500620000000000e+09,2.130987405700000004e+00
2.968504612000000000e+09,2.086998939499999928e+00
2.968508612000000000e+09,2.086998939499999928e+00
2.968512604000000000e+09,2.145650148300000115e+00
2.968516596000000000e+09,2.209188699699999869e+00
2.968520596000000000e+09,2.194525957100000202e+00
2.968524604000000000e+09,2.150537729199999859e+00
2.968528612000000000e+09,2.145650148300000115e+00
2.968532612000000000e+09,2.194525957100000202e+00
2.968536620000000000e+09,2.262952089300000136e+00
2.968540620000000000e+09,2.258064508399999948e+00
2.968544612000000000e+09,2.214076280500000049e+00
2.968548612000000000e+09,2.199413537899999938e+00
2.968552620000000000e+09,2.238514184900000092e+00
2.968556620000000000e+09,2.287389993600000171e+00
2.968560612000000000e+09,2.277614831899999803e+00
2.968564620000000000e+09,2.248289346600000016e+00
2.968568628000000000e+09,2.258064508399999948e+00
2.968572620000000000e+09,2.321603059700000138e+00
2.968576620000000000e+09,2.390029430299999813e+00
2.968580612000000000e+09,2.380254268599999889e+00
2.968584612000000000e+09,2.350928544899999917e+00
2.968588612000000000e+09,2.365591287600000037e+00
2.968592620000000000e+09,2.458455562500000191e+00
2.968596628000000000e+09,2.551319599100000168e+00
2.968600628000000000e+09,2.570869922600000024e+00
2.968604620000000000e+09,2.541544437399999801e+00
2.968608628000000000e+09,2.541544437399999801e+00
2.968612636000000000e+09,2.585532665200000135e+00
2.968616644000000000e+09,2.634408712299999955e+00
2.968620644000000000e+09,2.619745731300000102e+00
2.968624652000000000e+09,2.536656856500000057e+00
2.968628652000000000e+09,2.512218952100000013e+00
2.968632660000000000e+09,2.570869922600000024e+00
2.968636660000000000e+09,2.600195407799999803e+00
2.968640644000000000e+09,2.580645084299999947e+00
2.968644632000000000e+09,2.531769275599999869e+00
2.968648636000000000e+09,2.512218952100000013e+00
2.968652644000000000e+09,2.507331371299999834e+00
2.968656652000000000e+09,2.526881694700000125e+00
2.968660652000000000e+09,2.478005886000000046e+00
2.968664644000000000e+09,2.394917011200000001e+00
2.968668652000000000e+09,2.326490640599999882e+00
2.968672652000000000e+09,2.292277574499999915e+00
2.968676660000000000e+09,2.302052736199999838e+00
2.968680660000000000e+09,2.306940317100000026e+00
2.968684652000000000e+09,2.297165155400000103e+00
2.968688660000000000e+09,2.302052736199999838e+00
2.968692652000000000e+09,2.341153383199999993e+00
2.968696668000000000e+09,2.346040964100000181e+00
2.968700660000000000e+09,2.287389993600000171e+00
2.968704660000000000e+09,2.204301118800000125e+00
2.968708652000000000e+09,2.194525957100000202e+00
2.968712660000000000e+09,2.346040964100000181e+00
2.968716652000000000e+09,2.658846616699999998e+00
2.968720664000000000e+09,2.981427192599999998e+00
2.968724668000000000e+09,3.304007768600000006e+00
2.968728652000000000e+09,3.587487697599999859e+00
2.968732656000000000e+09,3.724340200399999912e+00
2.968736644000000000e+09,3.592375278400000038e+00
2.968740652000000000e+09,3.176930665900000061e+00
2.968744656000000000e+09,2.624633312199999846e+00
2.968748660000000000e+09,2.126099824899999824e+00
2.968752660000000000e+09,1.754643201799999996e+00
2.968756660000000000e+09,1.534701824099999889e+00
2.968760660000000000e+09,1.412512207000000020e+00
2.968764660000000000e+09,1.388074283499999950e+00
2.968768668000000000e+09,1.441837787599999920e+00
2.968772668000000000e+09,1.578690147299999902e+00
2.968776672000000000e+09,1.710654973900000098e+00
2.968780676000000000e+09,1.764418363499999920e+00
2.968784688000000000e+09,1.749755620900000030e+00
2.968788684000000000e+09,1.754643201799999996e+00
2.968792684000000000e+09,1.803519058200000025e+00
2.968796680000000000e+09,1.857282543099999961e+00
2.968800688000000000e+09,1.827957057899999960e+00
2.968804684000000000e+09,1.754643201799999996e+00
2.968808688000000000e+09,1.710654973900000098e+00
2.968812688000000000e+09,1.744868040000000065e+00
2.968816676000000000e+09,1.827957057899999960e+00
2.968820672000000000e+09,1.857282543099999961e+00
2.968824680000000000e+09,1.857282543099999961e+00
2.968828684000000000e+09,1.876832866600000038e+00
2.968832688000000000e+09,1.920821094499999937e+00
2.968836688000000000e+09,1.974584579400000095e+00
2.968840688000000000e+09,1.959921836799999983e+00
2.968844688000000000e+09,1.920821094499999937e+00
2.968848680000000000e+09,1.915933513599999971e+00
2.968852688000000000e+09,1.974584579400000095e+00
2.968856676000000000e+09,2.033235549900000105e+00
2.968860668000000000e+09,2.018572807299999994e+00
2.968864664000000000e+09,1.974584579400000095e+00
2.968868664000000000e+09,1.955034255900000018e+00
2.968872660000000000e+09,2.008797645500000062e+00
2.968876652000000000e+09,2.057673454200000140e+00
2.968880652000000000e+09,2.047898292500000217e+00
2.968884652000000000e+09,2.013685226399999806e+00
2.968888652000000000e+09,2.013685226399999806e+00
2.968892652000000000e+09,2.082111358600000184e+00
2.968896652000000000e+09,2.145650148300000115e+00
2.968900652000000000e+09,2.145650148300000115e+00
2.968904644000000000e+09,2.106549262999999783e+00
2.968908644000000000e+09,2.106549262999999783e+00
2.968912644000000000e+09,2.189638376200000014e+00
2.968916644000000000e+09,2.262952089300000136e+00
2.968920644000000000e+09,2.297165155400000103e+00
2.968924652000000000e+09,2.287389993600000171e+00
2.968928652000000000e+09,2.311827898000000214e+00
2.968932652000000000e+09,2.380254268599999889e+00
2.968936652000000000e+09,2.448680400799999823e+00
2.968940628000000000e+09,2.443792819900000080e+00
2.968944628000000000e+09,2.409579753800000113e+00
2.968948628000000000e+09,2.409579753800000113e+00
2.968952628000000000e+09,2.448680400799999823e+00
2.968956612000000000e+09,2.526881694700000125e+00
2.968960620000000000e+09,2.512218952100000013e+00
2.968964628000000000e+09,2.482893466899999790e+00
2.968968636000000000e+09,2.487781047799999978e+00
2.968972636000000000e+09,2.526881694700000125e+00
2.968976636000000000e+09,2.556207179999999912e+00
2.968980628000000000e+09,2.502443790400000090e+00
2.968984624000000000e+09,2.419354915600000044e+00
2.968988628000000000e+09,2.350928544899999917e+00
2.968992628000000000e+09,2.350928544899999917e+00
2.968996628000000000e+09,2.370478868400000216e+00
2.969000628000000000e+09,2.311827898000000214e+00
2.969004628000000000e+09,2.223851442299999981e+00
2.969008636000000000e+09,2.155425310100000047e+00
2.969012644000000000e+09,2.135874986600000192e+00
2.969016652000000000e+09,2.121212005599999895e+00
2.969020652000000000e+09,2.043010711600000029e+00
2.969024648000000000e+09,1.945259094200000094e+00
2.969028644000000000e+09,1.871945285700000072e+00
2.969032644000000000e+09,1.876832866600000038e+00
2.969036648000000000e+09,1.906158351800000039e+00
2.969040644000000000e+09,1.876832866600000038e+00
2.969044644000000000e+09,1.823069476999999994e+00
2.969048644000000000e+09,1.793743848799999929e+00
2.969052652000000000e+09,1.823069476999999994e+00
2.969056648000000000e+09,1.867057704899999893e+00
2.969060644000000000e+09,1.832844638799999926e+00
2.969064652000000000e+09,1.774193525300000074e+00
2.969068664000000000e+09,1.749755620900000030e+00
2.969072668000000000e+09,1.803519058200000025e+00
2.969076652000000000e+09,1.876832866600000038e+00
2.969080660000000000e+09,1.876832866600000038e+00
2.969084672000000000e+09,1.847507381400000037e+00
2.969088672000000000e+09,1.847507381400000037e+00
2.969092672000000000e+09,1.886608028399999970e+00
2.969096668000000000e+09,1.930596256200000083e+00
2.969100672000000000e+09,1.906158351800000039e+00
2.969104672000000000e+09,1.847507381400000037e+00
2.969108672000000000e+09,1.827957057899999960e+00
2.969112660000000000e+09,1.832844638799999926e+00
2.969116664000000000e+09,1.857282543099999961e+00
2.969120668000000000e+09,1.823069476999999994e+00
2.969124660000000000e+09,1.764418363499999920e+00
2.969128672000000000e+09,1.739980459200000107e+00
2.969132668000000000e+09,1.754643201799999996e+00
2.969136668000000000e+09,1.764418363499999920e+00
2.969140680000000000e+09,1.710654973900000098e+00
2.969144680000000000e+09,1.622678375200000023e+00
2.969148684000000000e+09,1.554252147599999967e+00
2.969152692000000000e+09,1.520039081500000000e+00
2.969156680000000000e+09,1.495601177199999965e+00
2.969160680000000000e+09,1.432062530500000097e+00
2.969164680000000000e+09,1.339198470099999927e+00
2.969168676000000000e+09,1.285434961300000012e+00
2.969172684000000000e+09,1.304985284800000089e+00
2.969176684000000000e+09,1.348973631800000073e+00
2.969180696000000000e+09,1.339198470099999927e+00
2.969184692000000000e+09,1.280547380400000046e+00
2.969188684000000000e+09,1.236559152599999933e+00
2.969192692000000000e+09,1.241446733399999891e+00
2.969196700000000000e+09,1.265884637799999934e+00
2.969200700000000000e+09,1.256109476000000003e+00
2.969204684000000000e+09,1.226783990800000002e+00
2.969208684000000000e+09,1.226783990800000002e+00
2.969212676000000000e+09,1.275659799500000080e+00
2.969216684000000000e+09,1.348973631800000073e+00
2.969220692000000000e+09,1.363636374399999962e+00
2.969224704000000000e+09,1.339198470099999927e+00
2.969228700000000000e+09,1.344086050900000107e+00
2.969232692000000000e+09,1.368523955299999928e+00
2.969236704000000000e+09,1.417399787899999986e+00
2.969240708000000000e+09,1.407624626100000054e+00
2.969244716000000000e+09,1.368523955299999928e+00
2.969248716000000000e+09,1.388074283499999950e+00
2.969252716000000000e+09,1.461388111099999998e+00
2.969256736000000000e+09,1.495601177199999965e+00
2.969260740000000000e+09,1.427174949599999909e+00
2.969264748000000000e+09,1.324535727500000037e+00
2.969268756000000000e+09,1.285434961300000012e+00
2.969272764000000000e+09,1.329423308299999995e+00
2.969276772000000000e+09,1.388074283499999950e+00
2.969280772000000000e+09,1.392961864399999916e+00
2.969284780000000000e+09,1.388074283499999950e+00
2.969288772000000000e+09,1.412512207000000020e+00
2.969292772000000000e+09,1.510263919800000076e+00
2.969296784000000000e+09,1.608015632599999911e+00
2.969300780000000000e+09,1.652003860400000024e+00
2.969304772000000000e+09,1.661779022199999956e+00
2.969308784000000000e+09,1.671554183900000101e+00
2.969312792000000000e+09,1.739980459200000107e+00
2.969316788000000000e+09,1.823069476999999994e+00
2.969320784000000000e+09,1.862170123999999927e+00
2.969324784000000000e+09,1.867057704899999893e+00
2.969328784000000000e+09,1.886608028399999970e+00
2.969332780000000000e+09,1.955034255900000018e+00
2.969336772000000000e+09,2.052785873399999961e+00
2.969340772000000000e+09,2.135874986600000192e+00
2.969344780000000000e+09,2.258064508399999948e+00
2.969348772000000000e+09,2.473118305199999867e+00
2.969352780000000000e+09,2.864125061000000194e+00
2.969356780000000000e+09,3.308895349500000194e+00
2.969360780000000000e+09,3.680351972500000013e+00
2.969364784000000000e+09,3.866080093299999909e+00
2.969368776000000000e+09,3.812316703700000087e+00
2.969372772000000000e+09,3.563049793199999815e+00
2.969376780000000000e+09,3.069403648299999787e+00
2.969380764000000000e+09,2.482893466899999790e+00
2.969384768000000000e+09,1.950146675100000060e+00
2.969388772000000000e+09,1.598240470799999979e+00
2.969392772000000000e+09,1.441837787599999920e+00
2.969396780000000000e+09,1.441837787599999920e+00
2.969400792000000000e+09,1.490713596299999999e+00
2.969404788000000000e+09,1.549364566800000009e+00
2.969408796000000000e+09,1.637341117799999912e+00
2.969412816000000000e+09,1.749755620900000030e+00
2.969416812000000000e+09,1.823069476999999994e+00
2.969420812000000000e+09,1.808406638999999982e+00
2.969424796000000000e+09,1.759530782599999954e+00
2.969428796000000000e+09,1.754643201799999996e+00
2.969432804000000000e+09,1.818181896200000036e+00
2.969436816000000000e+09,1.867057704899999893e+00
2.969440816000000000e+09,1.852394962300000003e+00
2.969444820000000000e+09,1.818181896200000036e+00
2.969448828000000000e+09,1.783968686999999997e+00
2.969452824000000000e+09,1.808406638999999982e+00
2.969456816000000000e+09,1.837732219600000105e+00
2.969460816000000000e+09,1.808406638999999982e+00
2.969464800000000000e+09,1.744868040000000065e+00
2.969468788000000000e+09,1.705767393099999918e+00
2.969472800000000000e+09,1.715542554800000064e+00
2.969476808000000000e+09,1.725317716499999987e+00
2.969480820000000000e+09,1.676441764800000067e+00
2.969484832000000000e+09,1.593352890000000022e+00
2.969488820000000000e+09,1.544476985900000043e+00
2.969492820000000000e+09,1.559139728499999933e+00
2.969496828000000000e+09,1.578690147299999902e+00
2.969500836000000000e+09,1.559139728499999933e+00
2.969504836000000000e+09,1.524926662399999966e+00
2.969508836000000000e+09,1.520039081500000000e+00
2.969512828000000000e+09,1.573802566499999944e+00
2.969516836000000000e+09,1.627565956099999989e+00
2.969520848000000000e+09,1.622678375200000023e+00
2.969524852000000000e+09,1.598240470799999979e+00
2.969528844000000000e+09,1.598240470799999979e+00
2.969532836000000000e+09,1.656891441299999990e+00
2.969536848000000000e+09,1.725317716499999987e+00
2.969540864000000000e+09,1.725317716499999987e+00
2.969544872000000000e+09,1.710654973900000098e+00
2.969548864000000000e+09,1.730205297399999953e+00
2.969552856000000000e+09,1.808406638999999982e+00
2.969556848000000000e+09,1.886608028399999970e+00
2.969560836000000000e+09,1.911045932700000005e+00
2.969564840000000000e+09,1.906158351800000039e+00
2.969568840000000000e+09,1.925708675299999895e+00
2.969572848000000000e+09,1.989247321999999984e+00
2.969576852000000000e+09,2.043010711600000029e+00
2.969580852000000000e+09,2.033235549900000105e+00
2.969584856000000000e+09,1.994134902899999950e+00
2.969588856000000000e+09,1.989247321999999984e+00
2.969592860000000000e+09,2.052785873399999961e+00
2.969596852000000000e+09,2.111436843799999963e+00
2.969600860000000000e+09,2.111436843799999963e+00
2.969604860000000000e+09,2.072336196799999808e+00
2.969608852000000000e+09,2.052785873399999961e+00
2.969612852000000000e+09,2.082111358600000184e+00
2.969616852000000000e+09,2.101661682100000039e+00
2.969620852000000000e+09,2.057673454200000140e+00
2.969624848000000000e+09,1.979472160300000061e+00
2.969628844000000000e+09,1.940371513299999906e+00
2.969632840000000000e+09,1.974584579400000095e+00
2.969636828000000000e+09,2.028347968999999917e+00
2.969640812000000000e+09,2.018572807299999994e+00
2.969644808000000000e+09,1.979472160300000061e+00
2.969648808000000000e+09,1.945259094200000094e+00
2.969652808000000000e+09,1.959921836799999983e+00
2.969656804000000000e+09,2.003910064599999874e+00
2.969660780000000000e+09,2.003910064599999874e+00
2.969664768000000000e+09,1.979472160300000061e+00
2.969668776000000000e+09,1.984359741200000027e+00
2.969672772000000000e+09,2.043010711600000029e+00
2.969676756000000000e+09,2.057673454200000140e+00
2.969680756000000000e+09,2.028347968999999917e+00
2.969684752000000000e+09,1.974584579400000095e+00
2.969688752000000000e+09,1.964809417699999949e+00
2.969692748000000000e+09,2.018572807299999994e+00
2.969696740000000000e+09,2.077223777699999996e+00
2.969700740000000000e+09,2.067448616000000072e+00
2.969704732000000000e+09,2.028347968999999917e+00
2.969708724000000000e+09,2.008797645500000062e+00
2.969712708000000000e+09,2.052785873399999961e+00
2.969716700000000000e+09,2.091886520300000107e+00
2.969720692000000000e+09,2.077223777699999996e+00
2.969724692000000000e+09,2.028347968999999917e+00
2.969728684000000000e+09,2.013685226399999806e+00
2.969732684000000000e+09,2.052785873399999961e+00
2.969736684000000000e+09,2.101661682100000039e+00
2.969740684000000000e+09,2.082111358600000184e+00
2.969744684000000000e+09,2.028347968999999917e+00
2.969748676000000000e+09,2.013685226399999806e+00
2.969752668000000000e+09,2.038123130699999841e+00
2.969756660000000000e+09,2.082111358600000184e+00
2.969760660000000000e+09,2.062561035099999884e+00
2.969764660000000000e+09,2.013685226399999806e+00
2.969768664000000000e+09,1.984359741200000027e+00
2.969772668000000000e+09,2.008797645500000062e+00
2.969776660000000000e+09,2.018572807299999994e+00
2.969780656000000000e+09,1.974584579400000095e+00
2.969784656000000000e+09,1.901270771000000082e+00
2.969788644000000000e+09,1.832844638799999926e+00
2.969792652000000000e+09,1.832844638799999926e+00
2.969796656000000000e+09,1.818181896200000036e+00
2.969800656000000000e+09,1.739980459200000107e+00
2.969804652000000000e+09,1.637341117799999912e+00
2.969808660000000000e+09,1.568914985599999978e+00
2.969812660000000000e+09,1.564027404700000012e+00
2.969816652000000000e+09,1.559139728499999933e+00
2.969820652000000000e+09,1.515151500700000042e+00
2.969824652000000000e+09,1.441837787599999920e+00
2.969828652000000000e+09,1.402737045200000088e+00
2.969832644000000000e+09,1.422287368699999943e+00
2.969836644000000000e+09,1.432062530500000097e+00
2.969840636000000000e+09,1.412512207000000020e+00
2.969844636000000000e+09,1.353861212700000038e+00
2.969848644000000000e+09,1.344086050900000107e+00
2.969852628000000000e+09,1.392961864399999916e+00
2.969856628000000000e+09,1.446725368400000100e+00
2.969860628000000000e+09,1.446725368400000100e+00
2.969864628000000000e+09,1.417399787899999986e+00
2.969868636000000000e+09,1.417399787899999986e+00
2.969872648000000000e+09,1.466275691899999956e+00
2.969876644000000000e+09,1.524926662399999966e+00
2.969880644000000000e+09,1.529814243299999932e+00
2.969884644000000000e+09,1.500488757999999923e+00
2.969888632000000000e+09,1.485826015400000033e+00
2.969892628000000000e+09,1.520039081500000000e+00
2.969896620000000000e+09,1.568914985599999978e+00
2.969900620000000000e+09,1.549364566800000009e+00
2.969904628000000000e+09,1.515151500700000042e+00
2.969908628000000000e+09,1.515151500700000042e+00
2.969912628000000000e+09,1.573802566499999944e+00
2.969916628000000000e+09,1.642228698700000100e+00
2.969920636000000000e+09,1.647116279600000066e+00
2.969924644000000000e+09,1.632453536899999946e+00
2.969928644000000000e+09,1.642228698700000100e+00
2.969932648000000000e+09,1.710654973900000098e+00
2.969936648000000000e+09,1.779081106100000031e+00
2.969940636000000000e+09,1.793743848799999929e+00
2.969944644000000000e+09,1.774193525300000074e+00
2.969948652000000000e+09,1.798631429600000109e+00
2.969952652000000000e+09,1.852394962300000003e+00
2.969956664000000000e+09,1.925708675299999895e+00
2.969960664000000000e+09,1.935483837100000049e+00
2.969964672000000000e+09,1.915933513599999971e+00
2.969968676000000000e+09,1.935483837100000049e+00
2.969972676000000000e+09,2.013685226399999806e+00
2.969976676000000000e+09,2.126099824899999824e+00
2.969980676000000000e+09,2.233626603999999904e+00
2.969984676000000000e+09,2.365591287600000037e+00
2.969988684000000000e+09,2.600195407799999803e+00
2.969992668000000000e+09,2.961876869200000151e+00
2.969996676000000000e+09,3.372433900799999940e+00
2.970000676000000000e+09,3.709677457799999800e+00
2.970004676000000000e+09,3.895405769299999932e+00
2.970008672000000000e+09,3.910068511900000043e+00
2.970012660000000000e+09,3.729227781200000091e+00
2.970016668000000000e+09,3.323558092099999861e+00
2.970020668000000000e+09,2.697947263700000153e+00
2.970024668000000000e+09,2.082111358600000184e+00
2.970028668000000000e+09,1.627565956099999989e+00
2.970032676000000000e+09,1.417399787899999986e+00
2.970036684000000000e+09,1.392961864399999916e+00
2.970040684000000000e+09,1.427174949599999909e+00
2.970044696000000000e+09,1.480938434600000075e+00
2.970048692000000000e+09,1.568914985599999978e+00
2.970052692000000000e+09,1.695992231299999986e+00
2.970056692000000000e+09,1.798631429600000109e+00
2.970060692000000000e+09,1.813294315300000070e+00
2.970064704000000000e+09,1.744868040000000065e+00
2.970068688000000000e+09,1.700879812199999952e+00
2.970072684000000000e+09,1.695992231299999986e+00
2.970076692000000000e+09,1.695992231299999986e+00
2.970080700000000000e+09,1.647116279600000066e+00
2.970084708000000000e+09,1.578690147299999902e+00
2.970088708000000000e+09,1.549364566800000009e+00
2.970092716000000000e+09,1.573802566499999944e+00
2.970096716000000000e+09,1.598240470799999979e+00
2.970100700000000000e+09,1.564027404700000012e+00
2.970104692000000000e+09,1.520039081500000000e+00
2.970108684000000000e+09,1.515151500700000042e+00
2.970112684000000000e+09,1.559139728499999933e+00
2.970116696000000000e+09,1.593352890000000022e+00
2.970120684000000000e+09,1.549364566800000009e+00
2.970124688000000000e+09,1.490713596299999999e+00
2.970128688000000000e+09,1.480938434600000075e+00
2.970132684000000000e+09,1.539589405000000077e+00
2.970136672000000000e+09,1.612903213500000099e+00
2.970140676000000000e+09,1.622678375200000023e+00
2.970144680000000000e+09,1.608015632599999911e+00
2.970148668000000000e+09,1.627565956099999989e+00
2.970152680000000000e+09,1.710654973900000098e+00
2.970156680000000000e+09,1.808406638999999982e+00
2.970160664000000000e+09,1.842619800500000071e+00
2.970164656000000000e+09,1.837732219600000105e+00
2.970168664000000000e+09,1.857282543099999961e+00
2.970172672000000000e+09,1.925708675299999895e+00
2.970176680000000000e+09,1.984359741200000027e+00
2.970180676000000000e+09,2.003910064599999874e+00
2.970184656000000000e+09,1.999022483799999916e+00
2.970188652000000000e+09,2.028347968999999917e+00
2.970192644000000000e+09,2.106549262999999783e+00
2.970196644000000000e+09,2.184750795299999826e+00
2.970200644000000000e+09,2.204301118800000125e+00
2.970204636000000000e+09,2.174975633599999902e+00
2.970208644000000000e+09,2.179863214400000082e+00
2.970212644000000000e+09,2.238514184900000092e+00
2.970216652000000000e+09,2.297165155400000103e+00
2.970220652000000000e+09,2.292277574499999915e+00
2.970224660000000000e+09,2.248289346600000016e+00
2.970228652000000000e+09,2.238514184900000092e+00
2.970232652000000000e+09,2.282502412699999983e+00
2.970236652000000000e+09,2.326490640599999882e+00
2.970240652000000000e+09,2.311827898000000214e+00
2.970244652000000000e+09,2.287389993600000171e+00
2.970248652000000000e+09,2.306940317100000026e+00
2.970252644000000000e+09,2.370478868400000216e+00
2.970256636000000000e+09,2.429130077299999968e+00
2.970260636000000000e+09,2.419354915600000044e+00
2.970264636000000000e+09,2.385141849500000077e+00
2.970268636000000000e+09,2.394917011200000001e+00
2.970272636000000000e+09,2.438905239099999900e+00
2.970276636000000000e+09,2.487781047799999978e+00
2.970280636000000000e+09,2.438905239099999900e+00
2.970284636000000000e+09,2.360703706699999849e+00
2.970288628000000000e+09,2.292277574499999915e+00
2.970292636000000000e+09,2.292277574499999915e+00
2.970296644000000000e+09,2.306940317100000026e+00
2.970300636000000000e+09,2.258064508399999948e+00
2.970304620000000000e+09,2.199413537899999938e+00
2.970308628000000000e+09,2.160312890999999791e+00
2.970312620000000000e+09,2.174975633599999902e+00
2.970316628000000000e+09,2.174975633599999902e+00
2.970320636000000000e+09,2.116324424700000151e+00
2.970324644000000000e+09,2.038123130699999841e+00
2.970328648000000000e+09,1.999022483799999916e+00
2.970332644000000000e+09,2.023460388100000173e+00
2.970336636000000000e+09,2.067448616000000072e+00
2.970340628000000000e+09,2.038123130699999841e+00
2.970344632000000000e+09,1.999022483799999916e+00
2.970348624000000000e+09,1.989247321999999984e+00
2.970352620000000000e+09,2.047898292500000217e+00
2.970356612000000000e+09,2.091886520300000107e+00
2.970360604000000000e+09,2.077223777699999996e+00
2.970364604000000000e+09,2.028347968999999917e+00
2.970368596000000000e+09,2.013685226399999806e+00
2.970372596000000000e+09,2.067448616000000072e+00
2.970376588000000000e+09,2.135874986600000192e+00
2.970380588000000000e+09,2.155425310100000047e+00
2.970384596000000000e+09,2.174975633599999902e+00
2.970388604000000000e+09,2.228739023200000169e+00
2.970392604000000000e+09,2.336265802299999805e+00
2.970396596000000000e+09,2.443792819900000080e+00
2.970400596000000000e+09,2.492668628600000158e+00
2.970404596000000000e+09,2.473118305199999867e+00
2.970408596000000000e+09,2.492668628600000158e+00
2.970412596000000000e+09,2.561094760800000092e+00
2.970416588000000000e+09,2.658846616699999998e+00
2.970420588000000000e+09,2.688172101900000222e+00
2.970424588000000000e+09,2.668621778399999922e+00
2.970428596000000000e+09,2.727272748899999932e+00
2.970432600000000000e+09,2.952101707400000219e+00
2.970436588000000000e+09,3.211143732000000028e+00
2.970440588000000000e+09,3.338220834699999973e+00
2.970444588000000000e+09,3.343108415600000161e+00
2.970448588000000000e+09,3.284457445100000150e+00
2.970452588000000000e+09,3.201368570300000105e+00
2.970456580000000000e+09,3.093841552699999831e+00
2.970460580000000000e+09,2.942326545699999851e+00
2.970464588000000000e+09,2.776148557600000011e+00
2.970468588000000000e+09,2.649071455000000075e+00
2.970472588000000000e+09,2.619745731300000102e+00
2.970476592000000000e+09,2.649071455000000075e+00
2.970480580000000000e+09,2.649071455000000075e+00
2.970484572000000000e+09,2.644183874099999887e+00
2.970488580000000000e+09,2.614858150399999914e+00
2.970492580000000000e+09,2.600195407799999803e+00
2.970496564000000000e+09,2.546432018199999980e+00
2.970500564000000000e+09,2.443792819900000080e+00
2.970504572000000000e+09,2.350928544899999917e+00
2.970508564000000000e+09,2.287389993600000171e+00
2.970512564000000000e+09,2.336265802299999805e+00
2.970516556000000000e+09,2.399804592100000189e+00
2.970520548000000000e+09,2.443792819900000080e+00
2.970524556000000000e+09,2.448680400799999823e+00
2.970528540000000000e+09,2.458455562500000191e+00
2.970532548000000000e+09,2.468230724300000123e+00
2.970536548000000000e+09,2.458455562500000191e+00
2.970540548000000000e+09,2.365591287600000037e+00
2.970544556000000000e+09,2.204301118800000125e+00
2.970548556000000000e+09,2.057673454200000140e+00
2.970552560000000000e+09,1.959921836799999983e+00
2.970556564000000000e+09,1.876832866600000038e+00
2.970560568000000000e+09,1.749755620900000030e+00
2.970564560000000000e+09,1.593352890000000022e+00
2.970568560000000000e+09,1.456500530200000032e+00
2.970572548000000000e+09,1.353861212700000038e+00
2.970576564000000000e+09,1.231671571699999967e+00
2.970580568000000000e+09,1.011730194000000083e+00
2.970584556000000000e+09,6.989247321999999540e-01
2.970588548000000000e+09,4.496578693000000126e-01
2.970592540000000000e+09,2.688172100999999814e-01
2.970596532000000000e+09,1.710654973000000079e-01
2.970600524000000000e+09,9.286412230000000434e-02
2.970604516000000000e+09,7.331377980000000627e-02
2.970608516000000000e+09,1.612903118000000025e-01
2.970612516000000000e+09,3.665689228999999827e-01
2.970616516000000000e+09,5.962854385000000423e-01
2.970620508000000000e+09,8.162267683999999690e-01
2.970624508000000000e+09,9.872922897000000475e-01
2.970628496000000000e+09,1.094819183300000054e+00
2.970632492000000000e+09,1.309872865600000047e+00
2.970636492000000000e+09,1.652003860400000024e+00
2.970640476000000000e+09,2.116324424700000151e+00
2.970644476000000000e+09,2.605082988699999991e+00
2.970648468000000000e+09,3.123167037900000054e+00
2.970652468000000000e+09,3.582600116700000115e+00
2.970656460000000000e+09,3.939393997099999822e+00
2.970660468000000000e+09,4.071358680700000399e+00
2.970664464000000000e+09,3.988269805899999909e+00
2.970668460000000000e+09,3.739002943000000023e+00
2.970672452000000000e+09,3.304007768600000006e+00
2.970676444000000000e+09,2.785923719399999943e+00
2.970680452000000000e+09,2.311827898000000214e+00
2.970684452000000000e+09,1.974584579400000095e+00
2.970688452000000000e+09,1.823069476999999994e+00
2.970692448000000000e+09,1.862170123999999927e+00
2.970696448000000000e+09,1.974584579400000095e+00
2.970700444000000000e+09,2.077223777699999996e+00
2.970704444000000000e+09,2.135874986600000192e+00
2.970708452000000000e+09,2.160312890999999791e+00
2.970712452000000000e+09,2.194525957100000202e+00
2.970716460000000000e+09,2.218963861399999793e+00
2.970720468000000000e+09,2.189638376200000014e+00
2.970724476000000000e+09,2.214076280500000049e+00
2.970728476000000000e+09,2.326490640599999882e+00
2.970732460000000000e+09,2.517106533000000201e+00
2.970736460000000000e+09,2.722385168000000188e+00
2.970740464000000000e+09,2.859237480100000006e+00
2.970744460000000000e+09,2.947214126500000031e+00
2.970748468000000000e+09,3.030303001400000085e+00
2.970752452000000000e+09,3.123167037900000054e+00
2.970756452000000000e+09,3.118279456999999866e+00
2.970760452000000000e+09,2.947214126500000031e+00
2.970764464000000000e+09,2.683284521100000042e+00
2.970768460000000000e+09,2.370478868400000216e+00
2.970772452000000000e+09,2.038123130699999841e+00
2.970776452000000000e+09,1.598240470799999979e+00
2.970780440000000000e+09,1.099706764200000020e+00
2.970784436000000000e+09,7.429130077000000165e-01
2.970788420000000000e+09,6.109481811000000429e-01
2.970792412000000000e+09,7.184750556000000232e-01
2.970796404000000000e+09,9.579667091000000356e-01
2.970800396000000000e+09,1.236559152599999933e+00
2.970804404000000000e+09,1.549364566800000009e+00
2.970808404000000000e+09,1.876832866600000038e+00
2.970812396000000000e+09,2.214076280500000049e+00
2.970816388000000000e+09,2.507331371299999834e+00
2.970820396000000000e+09,2.697947263700000153e+00
2.970824404000000000e+09,2.834799575799999971e+00
2.970828404000000000e+09,2.961876869200000151e+00
2.970832412000000000e+09,3.108504295299999942e+00
2.970836416000000000e+09,3.245356798099999995e+00
2.970840420000000000e+09,3.279569864199999962e+00
2.970844420000000000e+09,3.235581636400000072e+00
2.970848428000000000e+09,3.181818246799999805e+00
2.970852428000000000e+09,3.152492761600000026e+00
2.970856436000000000e+09,3.132942438100000171e+00
2.970860444000000000e+09,3.079178810100000163e+00
2.970864436000000000e+09,3.005865097000000041e+00
2.970868424000000000e+09,2.981427192599999998e+00
2.970872428000000000e+09,3.000977516099999853e+00
2.970876424000000000e+09,2.986314773500000186e+00
2.970880432000000000e+09,2.927663803100000184e+00
2.970884428000000000e+09,2.971652030900000074e+00
2.970888428000000000e+09,3.132942438100000171e+00
2.970892428000000000e+09,3.333333253799999785e+00
2.970896436000000000e+09,3.504398822699999805e+00
2.970900428000000000e+09,3.611925601899999894e+00
2.970904428000000000e+09,3.792766332599999846e+00
2.970908436000000000e+09,4.144672393699999624e+00
2.970912436000000000e+09,4.516129016799999896e+00
2.970916436000000000e+09,4.745845317799999741e+00
2.970920436000000000e+09,4.819159507700000233e+00
2.970924436000000000e+09,4.726294994299999885e+00
2.970928444000000000e+09,4.477028369900000193e+00
2.970932444000000000e+09,4.134897232000000145e+00
2.970936436000000000e+09,3.695014715100000124e+00
2.970940436000000000e+09,3.088953971800000087e+00
2.970944428000000000e+09,2.370478868400000216e+00
2.970948420000000000e+09,1.598240470799999979e+00
2.970952412000000000e+09,9.872922897000000475e-01
2.970956404000000000e+09,5.913978099000000155e-01
2.970960388000000000e+09,3.567937373999999773e-01
2.970964388000000000e+09,2.052785873000000094e-01
2.970968376000000000e+09,1.270772218000000009e-01
2.970972372000000000e+09,6.842619889999999871e-02
2.970976356000000000e+09,4.887585629999999931e-02
2.970980340000000000e+09,2.443792809999999899e-02
2.970984340000000000e+09,7.820136540000000025e-02
2.970988332000000000e+09,2.199413537000000085e-01
2.970992340000000000e+09,4.838709353999999796e-01
2.970996332000000000e+09,7.820137023000000021e-01
2.971000304000000000e+09,1.055718421899999981e+00
2.971004300000000000e+09,1.231671571699999967e+00
2.971008300000000000e+09,1.407624626100000054e+00
2.971012300000000000e+09,1.573802566499999944e+00
2.971016288000000000e+09,1.710654973900000098e+00
2.971020268000000000e+09,1.735092878299999919e+00
2.971024260000000000e+09,1.666666602999999913e+00
2.971028248000000000e+09,1.593352890000000022e+00
2.971032236000000000e+09,1.578690147299999902e+00
2.971036232000000000e+09,1.593352890000000022e+00
2.971040220000000000e+09,1.559139728499999933e+00
2.971044224000000000e+09,1.485826015400000033e+00
2.971048220000000000e+09,1.432062530500000097e+00
2.971052212000000000e+09,1.451612949300000066e+00
2.971056212000000000e+09,1.529814243299999932e+00
2.971060212000000000e+09,1.564027404700000012e+00
2.971064212000000000e+09,1.671554183900000101e+00
2.971068220000000000e+09,1.862170123999999927e+00
2.971072216000000000e+09,2.116324424700000151e+00
2.971076220000000000e+09,2.370478868400000216e+00
2.971080220000000000e+09,2.561094760800000092e+00
2.971084212000000000e+09,2.761485814999999899e+00
2.971088212000000000e+09,3.015640258699999965e+00
2.971092204000000000e+09,3.382209300900000049e+00
2.971096196000000000e+09,3.817204284599999831e+00
2.971100196000000000e+09,4.217986106799999746e+00
2.971104188000000000e+09,4.437927722899999594e+00
2.971108188000000000e+09,4.496578693300000040e+00
2.971112196000000000e+09,4.393939494999999695e+00
2.971116196000000000e+09,4.144672393699999624e+00
2.971120204000000000e+09,3.782991170799999914e+00
2.971124204000000000e+09,3.377321720099999869e+00
2.971128212000000000e+09,2.986314773500000186e+00
2.971132220000000000e+09,2.619745731300000102e+00
2.971136220000000000e+09,2.233626603999999904e+00
2.971140212000000000e+09,1.754643201799999996e+00
2.971144216000000000e+09,1.221896409900000036e+00
2.971148200000000000e+09,7.624633311999999830e-01
2.971152204000000000e+09,4.789833545000000137e-01
2.971156196000000000e+09,3.030303000999999830e-01
2.971160164000000000e+09,2.932551192999999778e-01
2.971164164000000000e+09,3.861192512000000132e-01
2.971168164000000000e+09,5.913978099000000155e-01
2.971172156000000000e+09,7.233626842000000501e-01
2.971176156000000000e+09,7.233626842000000501e-01
2.971180156000000000e+09,5.962854385000000423e-01
2.971184152000000000e+09,6.842619894999999453e-01
2.971188144000000000e+09,1.011730194000000083e+00
2.971192140000000000e+09,1.402737045200000088e+00
2.971196140000000000e+09,1.637341117799999912e+00
2.971200160000000000e+09,1.715542554800000064e+00
2.971204172000000000e+09,1.730205297399999953e+00
2.971208160000000000e+09,1.749755620900000030e+00
2.971212156000000000e+09,1.803519058200000025e+00
2.971216148000000000e+09,1.852394962300000003e+00
2.971220160000000000e+09,1.886608028399999970e+00
2.971224144000000000e+09,1.964809417699999949e+00
2.971228140000000000e+09,2.086998939499999928e+00
2.971232140000000000e+09,2.214076280500000049e+00
2.971236132000000000e+09,2.267839670099999871e+00
2.971240132000000000e+09,2.282502412699999983e+00
2.971244132000000000e+09,2.365591287600000037e+00
2.971248144000000000e+09,2.624633312199999846e+00
2.971252148000000000e+09,3.044965744000000196e+00
2.971256144000000000e+09,3.479960918400000214e+00
2.971260140000000000e+09,3.763440847300000058e+00
2.971264140000000000e+09,3.866080093299999909e+00
2.971268132000000000e+09,3.866080093299999909e+00
2.971272116000000000e+09,3.807429122899999907e+00
2.971276120000000000e+09,3.675464391699999833e+00
2.971280124000000000e+09,3.426197528799999947e+00
2.971284124000000000e+09,3.113391876200000130e+00
2.971288132000000000e+09,2.834799575799999971e+00
2.971292132000000000e+09,2.605082988699999991e+00
2.971296124000000000e+09,2.390029430299999813e+00
2.971300116000000000e+09,2.155425310100000047e+00
2.971304128000000000e+09,1.945259094200000094e+00
2.971308116000000000e+09,1.876832866600000038e+00
2.971312116000000000e+09,2.023460388100000173e+00
2.971316108000000000e+09,2.316715478799999950e+00
2.971320116000000000e+09,2.614858150399999914e+00
2.971324116000000000e+09,2.864125061000000194e+00
2.971328116000000000e+09,3.044965744000000196e+00
2.971332108000000000e+09,3.035190582199999820e+00
2.971336108000000000e+09,2.810361671399999928e+00
2.971340116000000000e+09,2.287389993600000171e+00
2.971344116000000000e+09,1.661779022199999956e+00
2.971348124000000000e+09,1.153470158500000009e+00
2.971352116000000000e+09,8.406646728000000124e-01
2.971356100000000000e+09,7.086998938999999886e-01
2.971360092000000000e+09,6.011730194000000083e-01
2.971364084000000000e+09,4.789833545000000137e-01
2.971368076000000000e+09,3.079178810000000044e-01
2.971372068000000000e+09,2.003910063999999880e-01
2.971376044000000000e+09,1.173020481999999948e-01
2.971380036000000000e+09,1.221896408999999933e-01
2.971384036000000000e+09,2.346040963999999895e-01
2.971388020000000000e+09,5.816226481999999809e-01
2.971392016000000000e+09,1.080156440699999942e+00
2.971395996000000000e+09,1.388074283499999950e+00
2.971399996000000000e+09,1.417399787899999986e+00
2.971404004000000000e+09,1.353861212700000038e+00
2.971408012000000000e+09,1.378299117000000074e+00
2.971412012000000000e+09,1.529814243299999932e+00
2.971416024000000000e+09,1.730205297399999953e+00
2.971420016000000000e+09,1.906158351800000039e+00
2.971424012000000000e+09,2.033235549900000105e+00
2.971428012000000000e+09,2.204301118800000125e+00
2.971432004000000000e+09,2.487781047799999978e+00
2.971435996000000000e+09,2.810361671399999928e+00
2.971440004000000000e+09,3.079178810100000163e+00
2.971444004000000000e+09,3.235581636400000072e+00
2.971448012000000000e+09,3.294232606800000074e+00
2.971452012000000000e+09,3.299120187699999818e+00
2.971456012000000000e+09,3.220918893799999960e+00
2.971460012000000000e+09,3.010752677899999785e+00
2.971464012000000000e+09,2.639296293200000143e+00
2.971468012000000000e+09,2.272727251000000059e+00
2.971472020000000000e+09,2.038123130699999841e+00
2.971476016000000000e+09,1.901270771000000082e+00
2.971480004000000000e+09,1.769305944400000108e+00
2.971484008000000000e+09,1.608015632599999911e+00
2.971488008000000000e+09,1.485826015400000033e+00
2.971492004000000000e+09,1.441837787599999920e+00
2.971496016000000000e+09,1.461388111099999998e+00
2.971500032000000000e+09,1.461388111099999998e+00
2.971504040000000000e+09,1.456500530200000032e+00
2.971508032000000000e+09,1.451612949300000066e+00
2.971512036000000000e+09,1.524926662399999966e+00
2.971516036000000000e+09,1.612903213500000099e+00
2.971520044000000000e+09,1.656891441299999990e+00
2.971524044000000000e+09,1.661779022199999956e+00
2.971528056000000000e+09,1.671554183900000101e+00
2.971532060000000000e+09,1.735092878299999919e+00
2.971536064000000000e+09,1.823069476999999994e+00
2.971540056000000000e+09,1.842619800500000071e+00
2.971544044000000000e+09,1.852394962300000003e+00
2.971548052000000000e+09,1.891495609199999928e+00
2.971552056000000000e+09,1.989247321999999984e+00
2.971556052000000000e+09,2.130987405700000004e+00
2.971560044000000000e+09,2.438905239099999900e+00
2.971564052000000000e+09,2.663734197600000186e+00
2.971568052000000000e+09,2.487781047799999978e+00
2.971572052000000000e+09,2.052785873399999961e+00
2.971576052000000000e+09,1.461388111099999998e+00
2.971580060000000000e+09,9.188660620999999917e-01
2.971584052000000000e+09,5.571847438000000485e-01
2.971588044000000000e+09,3.274682044000000181e-01
2.971592036000000000e+09,1.906158350999999918e-01
2.971596028000000000e+09,1.221896408999999933e-01
2.971600036000000000e+09,1.759530782000000015e-01
2.971604020000000000e+09,4.105571746000000188e-01
2.971608004000000000e+09,7.526881694000000511e-01
2.971611992000000000e+09,1.129032254199999974e+00
2.971616000000000000e+09,1.485826015400000033e+00
2.971619996000000000e+09,1.652003860400000024e+00
2.971623988000000000e+09,1.652003860400000024e+00
2.971627980000000000e+09,1.549364566800000009e+00
2.971631992000000000e+09,1.485826015400000033e+00
2.971636000000000000e+09,1.480938434600000075e+00
2.971640004000000000e+09,1.564027404700000012e+00
2.971644000000000000e+09,1.803519058200000025e+00
2.971647988000000000e+09,2.253176927500000204e+00
2.971651996000000000e+09,2.908113479599999884e+00
2.971656000000000000e+09,3.494623660999999881e+00
2.971659996000000000e+09,3.690127134299999945e+00
2.971663996000000000e+09,3.548387050600000148e+00
2.971667988000000000e+09,3.308895349500000194e+00
2.971671988000000000e+09,3.123167037900000054e+00
2.971675992000000000e+09,2.927663803100000184e+00
2.971679996000000000e+09,2.614858150399999914e+00
2.971684004000000000e+09,2.267839670099999871e+00
2.971688000000000000e+09,1.999022483799999916e+00
2.971691988000000000e+09,1.911045932700000005e+00
2.971695996000000000e+09,1.911045932700000005e+00
2.971700000000000000e+09,1.930596256200000083e+00
2.971704000000000000e+09,1.940371513299999906e+00
2.971708000000000000e+09,1.979472160300000061e+00
2.971712004000000000e+09,2.062561035099999884e+00
2.971716004000000000e+09,2.135874986600000192e+00
2.971720012000000000e+09,2.135874986600000192e+00
2.971724020000000000e+09,2.086998939499999928e+00
2.971728012000000000e+09,2.052785873399999961e+00
2.971732008000000000e+09,2.072336196799999808e+00
2.971736004000000000e+09,2.096774101199999851e+00
2.971740004000000000e+09,2.057673454200000140e+00
2.971744008000000000e+09,1.994134902899999950e+00
2.971748008000000000e+09,1.979472160300000061e+00
2.971752004000000000e+09,2.101661682100000039e+00
2.971756012000000000e+09,2.394917011200000001e+00
2.971760020000000000e+09,2.717497587200000009e+00
2.971764028000000000e+09,2.737047910599999856e+00
2.971768028000000000e+09,2.453567981700000011e+00
2.971772036000000000e+09,2.072336196799999808e+00
2.971776036000000000e+09,1.715542554800000064e+00
2.971780036000000000e+09,1.344086050900000107e+00
2.971784028000000000e+09,9.139784812000000258e-01
2.971788016000000000e+09,5.669599055999999804e-01
2.971792012000000000e+09,3.470185755999999899e-01
2.971796004000000000e+09,2.003910063999999880e-01
2.971799976000000000e+09,1.270772218000000009e-01
2.971803980000000000e+09,1.368523955000000014e-01
2.971807980000000000e+09,2.346040963999999895e-01
2.971811972000000000e+09,3.470185755999999899e-01
2.971815960000000000e+09,3.861192512000000132e-01
2.971819956000000000e+09,3.567937373999999773e-01
2.971823956000000000e+09,3.714565038000000041e-01
2.971827952000000000e+09,5.034213065999999515e-01
2.971831948000000000e+09,8.015640257999999685e-01
2.971835932000000000e+09,1.207233667299999924e+00
2.971839932000000000e+09,1.632453536899999946e+00
2.971843944000000000e+09,1.989247321999999984e+00
2.971847940000000000e+09,2.287389993600000171e+00
2.971851948000000000e+09,2.556207179999999912e+00
2.971855940000000000e+09,2.634408712299999955e+00
2.971859932000000000e+09,2.541544437399999801e+00
2.971863940000000000e+09,2.390029430299999813e+00
2.971867932000000000e+09,2.277614831899999803e+00
2.971871940000000000e+09,2.204301118800000125e+00
2.971875940000000000e+09,2.204301118800000125e+00
2.971879940000000000e+09,2.272727251000000059e+00
2.971883940000000000e+09,2.287389993600000171e+00
2.971887940000000000e+09,2.243401765799999836e+00
2.971891940000000000e+09,2.209188699699999869e+00
2.971895940000000000e+09,2.199413537899999938e+00
2.971899948000000000e+09,2.174975633599999902e+00
2.971903948000000000e+09,2.140762567499999935e+00
2.971907948000000000e+09,2.174975633599999902e+00
2.971911956000000000e+09,2.292277574499999915e+00
2.971915964000000000e+09,2.424242496399999780e+00
2.971919972000000000e+09,2.517106533000000201e+00
2.971923972000000000e+09,2.570869922600000024e+00
2.971927972000000000e+09,2.619745731300000102e+00
2.971931984000000000e+09,2.717497587200000009e+00
2.971935988000000000e+09,2.844574737499999895e+00
2.971939996000000000e+09,3.054740905700000120e+00
2.971943984000000000e+09,3.362658739000000008e+00
2.971947980000000000e+09,3.445747852299999803e+00
2.971951988000000000e+09,3.147605180699999838e+00
2.971955988000000000e+09,2.697947263700000153e+00
2.971959996000000000e+09,2.199413537899999938e+00
2.971964004000000000e+09,1.647116279600000066e+00
2.971968020000000000e+09,1.085044021599999908e+00
2.971972004000000000e+09,6.598240852000000212e-01
2.971975996000000000e+09,3.958944320000000183e-01
2.971979988000000000e+09,2.297165154999999959e-01
2.971983996000000000e+09,2.737047910000000028e-01
2.971987984000000000e+09,5.425220012000000480e-01
2.971991972000000000e+09,1.104594349799999931e+00
2.971995972000000000e+09,1.793743848799999929e+00
2.971999980000000000e+09,2.409579753800000113e+00
2.972003984000000000e+09,2.869012641899999938e+00
2.972007980000000000e+09,3.269794702500000039e+00
2.972011980000000000e+09,3.572824954900000183e+00
2.972015988000000000e+09,3.651026487299999790e+00
2.972020000000000000e+09,3.421309947900000203e+00
2.972023996000000000e+09,2.947214126500000031e+00
2.972028000000000000e+09,2.468230724300000123e+00
2.972031988000000000e+09,2.194525957100000202e+00
2.972035996000000000e+09,2.116324424700000151e+00
2.972040004000000000e+09,2.135874986600000192e+00
2.972044012000000000e+09,2.160312890999999791e+00
2.972048012000000000e+09,2.170088052700000159e+00
2.972052004000000000e+09,2.174975633599999902e+00
2.972056012000000000e+09,2.072336196799999808e+00
2.972060016000000000e+09,1.808406638999999982e+00
2.972063996000000000e+09,1.407624626100000054e+00
2.972068004000000000e+09,9.921798706000000134e-01
2.972071988000000000e+09,6.940371512999999881e-01
2.972075980000000000e+09,4.643206119000000132e-01
2.972079972000000000e+09,3.763440847000000256e-01
2.972083964000000000e+09,3.567937373999999773e-01
2.972087964000000000e+09,4.985337256999999855e-01
2.972091964000000000e+09,7.722384929000000175e-01
2.972095960000000000e+09,1.094819183300000054e+00
2.972099964000000000e+09,1.363636374399999962e+00
2.972103972000000000e+09,1.559139728499999933e+00
2.972107980000000000e+09,1.735092878299999919e+00
2.972111980000000000e+09,1.911045932700000005e+00
2.972115988000000000e+09,2.057673454200000140e+00
2.972119980000000000e+09,2.106549262999999783e+00
2.972123980000000000e+09,2.072336196799999808e+00
2.972127980000000000e+09,2.062561035099999884e+00
2.972131980000000000e+09,2.126099824899999824e+00
2.972135980000000000e+09,2.243401765799999836e+00
2.972139988000000000e+09,2.370478868400000216e+00
2.972143988000000000e+09,2.556207179999999912e+00
2.972147980000000000e+09,3.005865097000000041e+00
2.972151964000000000e+09,3.577712535799999927e+00
2.972155964000000000e+09,3.651026487299999790e+00
2.972159956000000000e+09,3.225806474600000140e+00
2.972163964000000000e+09,2.605082988699999991e+00
2.972167960000000000e+09,1.901270771000000082e+00
2.972171948000000000e+09,1.207233667299999924e+00
2.972175948000000000e+09,7.282502651000000160e-01
2.972179948000000000e+09,4.349951267000000121e-01
2.972183944000000000e+09,2.590420245999999760e-01
2.972187932000000000e+09,1.466275596000000125e-01
2.972191932000000000e+09,9.286412230000000434e-02
2.972195924000000000e+09,4.887585629999999931e-02
2.972199908000000000e+09,3.421309940000000216e-02
2.972203900000000000e+09,1.466275589999999941e-02
2.972207892000000000e+09,4.887585100000000314e-03
2.972211844000000000e+09,0.000000000000000000e+00
2.972215740000000000e+09,0.000000000000000000e+00
2.972219644000000000e+09,0.000000000000000000e+00
2.972223540000000000e+09,0.000000000000000000e+00
2.972227468000000000e+09,9.775170300000000229e-03
2.972231420000000000e+09,0.000000000000000000e+00
2.972235316000000000e+09,0.000000000000000000e+00
2.972239204000000000e+09,0.000000000000000000e+00
2.972243092000000000e+09,0.000000000000000000e+00
2.972246980000000000e+09,0.000000000000000000e+00
2.972250916000000000e+09,3.910068319999999986e-02
2.972254900000000000e+09,2.346040963999999895e-01
2.972258888000000000e+09,5.669599055999999804e-01
2.972262884000000000e+09,9.628542900000000015e-01
2.972266872000000000e+09,1.451612949300000066e+00
2.972270880000000000e+09,1.984359741200000027e+00
2.972274884000000000e+09,2.541544437399999801e+00
2.972278888000000000e+09,2.986314773500000186e+00
2.972282892000000000e+09,3.284457445100000150e+00
2.972286888000000000e+09,3.494623660999999881e+00
2.972290884000000000e+09,3.660801649000000157e+00
2.972294868000000000e+09,3.826979446400000207e+00
2.972298868000000000e+09,3.910068511900000043e+00
2.972302864000000000e+09,3.890518188400000188e+00
